2.160193446343328105e-08
9.653235792939085513e-07
5.289948603603988886e-06
1.879604315035976470e-05
2.498715912224724889e-05
3.562897109077312052e-05
4.429649925441481173e-05
7.143112452467903495e-05
1.436417514923959970e-04
2.121522848028689623e-04
3.065099590457975864e-04
5.699931061826646328e-04
9.940919699147343636e-04
2.676315372809767723e-03
4.910358693450689316e-03
6.032711360603570938e-03
7.108097895979881287e-03
7.514565251767635345e-03
7.542531937360763550e-03
7.338178809732198715e-03
6.986197549849748611e-03
6.520599592477083206e-03
5.632499232888221741e-03
4.649985115975141525e-03
3.943598829209804535e-03
3.530775895342230797e-03
3.247319720685482025e-03
3.090182784944772720e-03
2.992228837683796883e-03
2.927603200078010559e-03
2.882244763895869255e-03
2.864997601136565208e-03
2.857342129573225975e-03
2.850892720744013786e-03
2.851128811016678810e-03
2.864269539713859558e-03
2.860294654965400696e-03
2.822913462296128273e-03
2.790386555716395378e-03
2.796567743644118309e-03
2.773302141577005386e-03
2.776314970105886459e-03
2.751687541604042053e-03
2.744819037616252899e-03
2.708828309550881386e-03
2.687696134671568871e-03
2.703506732359528542e-03
2.705601742491126060e-03
2.689899643883109093e-03
2.696515060961246490e-03
2.670941175892949104e-03
2.678293269127607346e-03
2.672766568139195442e-03
2.665247768163681030e-03
2.669455483555793762e-03
2.693509217351675034e-03
2.689243992790579796e-03
2.679694211110472679e-03
2.687957836315035820e-03
2.698965370655059814e-03
2.695860108360648155e-03
2.661803737282752991e-03
2.632861025631427765e-03
2.642992883920669556e-03
2.639509737491607666e-03
2.655570395290851593e-03
2.678003394976258278e-03
2.696228446438908577e-03
2.685385290533304214e-03
2.695396309718489647e-03
2.679604804143309593e-03
2.652019029483199120e-03
2.674165880307555199e-03
2.672602189704775810e-03
2.665535314008593559e-03
2.646613866090774536e-03
2.655921736732125282e-03
2.643522806465625763e-03
2.624196698889136314e-03
2.640887629240751266e-03
2.649944741278886795e-03
2.623958280310034752e-03
2.639147685840725899e-03
2.647588495165109634e-03
2.624075859785079956e-03
2.639620332047343254e-03
2.635460346937179565e-03
2.617142861708998680e-03
2.631434937939047813e-03
2.638180274516344070e-03
2.604393288493156433e-03
2.614240860566496849e-03
2.619747072458267212e-03
2.603198867291212082e-03
2.626327564939856529e-03
2.613240620121359825e-03
2.592138713225722313e-03
2.598939929157495499e-03
2.607971895486116409e-03
2.599963219836354256e-03
2.554710488766431808e-03
2.582049462944269180e-03
2.624854445457458496e-03
2.631188603118062019e-03
2.602380933240056038e-03
2.642844803631305695e-03
2.608378184959292412e-03
2.661843318492174149e-03
2.673059469088912010e-03
2.625091234222054482e-03
2.651176182553172112e-03
2.695462200790643692e-03
2.715049777179956436e-03
2.708229003474116325e-03
2.725588623434305191e-03
2.674179384484887123e-03
2.717694034799933434e-03
2.733743982389569283e-03
2.686216728761792183e-03
2.755432855337858200e-03
2.755972323939204216e-03
2.746047452092170715e-03
2.764196833595633507e-03
2.779387170448899269e-03
2.780454466119408607e-03
2.789332298561930656e-03
2.773452317342162132e-03
2.746063750237226486e-03
2.749893814325332642e-03
2.715588547289371490e-03
2.797690918669104576e-03
2.792225917801260948e-03
2.808823250234127045e-03
2.798385219648480415e-03
2.809348981827497482e-03
2.815564395859837532e-03
2.810235833749175072e-03
2.762141637504100800e-03
2.810877980664372444e-03
2.795246662572026253e-03
2.820966299623250961e-03
2.816935302689671516e-03
2.821109257638454437e-03
2.816576045006513596e-03
2.819682005792856216e-03
2.824547234922647476e-03
2.847443800419569016e-03
2.856601262465119362e-03
2.848625415936112404e-03
2.860203618183732033e-03
2.860277891159057617e-03
2.858255524188280106e-03
2.876060782000422478e-03
2.868087729439139366e-03
2.869806485250592232e-03
2.884400077164173126e-03
2.893210854381322861e-03
2.882085740566253662e-03
2.888418734073638916e-03
2.895221579819917679e-03
2.903730608522891998e-03
2.887494396418333054e-03
2.896482590585947037e-03
2.897273981943726540e-03
2.907413290813565254e-03
2.920724451541900635e-03
2.929636510089039803e-03
2.941462909802794456e-03
2.936492674052715302e-03
2.928892616182565689e-03
2.934372983872890472e-03
2.940726699307560921e-03
2.941827056929469109e-03
2.926432993263006210e-03
2.938785124570131302e-03
2.940273610875010490e-03
2.955568954348564148e-03
2.973478753119707108e-03
2.979805460199713707e-03
3.003272227942943573e-03
3.014743560925126076e-03
3.022687276825308800e-03
3.038002178072929382e-03
3.051597159355878830e-03
3.064109478145837784e-03
3.065072232857346535e-03
3.083029761910438538e-03
3.091125749051570892e-03
3.091409802436828613e-03
3.104632953181862831e-03
3.121548332273960114e-03
3.138500731438398361e-03
3.200276987627148628e-03
3.145734779536724091e-03
3.250499488785862923e-03
3.309836843982338905e-03
3.386884229257702827e-03
3.466147230938076973e-03
3.849811153486371040e-03
3.478924045339226723e-03
3.896242007613182068e-03
4.018323030322790146e-03
4.176825750619173050e-03
4.839229397475719452e-03
5.789097864180803299e-03
5.590242799371480942e-03
4.020423162728548050e-03
3.559474833309650421e-03
5.338585935533046722e-03
6.132466252893209457e-03
5.793778691440820694e-03
6.980224512517452240e-03
8.020794019103050232e-03
9.023138321936130524e-03
8.507139049470424652e-03
7.105610799044370651e-03
7.960769347846508026e-03
9.845658205449581146e-03
1.038718223571777344e-02
1.073414180427789688e-02
1.116849016398191452e-02
1.179362926632165909e-02
1.293134596198797226e-02
1.408236380666494370e-02
1.370379701256752014e-02
1.302959769964218140e-02
1.237370353192090988e-02
1.238875091075897217e-02
1.316103897988796234e-02
1.198181230574846268e-02
1.279017794877290726e-02
1.336416136473417282e-02
1.464050356298685074e-02
1.382067892700433731e-02
1.400197669863700867e-02
1.481139846146106720e-02
1.476385165005922318e-02
1.464014593511819839e-02
1.380936615169048309e-02
1.567641831934452057e-02
1.272168941795825958e-02
8.843807503581047058e-03
6.048041861504316330e-03
3.780043218284845352e-03
1.454896992072463036e-03
4.804363707080483437e-04
1.123312977142632008e-04
2.415130620647687465e-05
1.253944810741813853e-05
6.871273399156052619e-06
2.518874225643230602e-06
5.277109380585898180e-07
