5.900353983179229544e-08
1.119928697335126344e-06
5.697087999578798190e-06
1.821691876102704555e-05
2.119804776157252491e-05
3.496060162433423102e-05
4.278518463252112269e-05
6.912995741004124284e-05
1.433929428458213806e-04
2.104988234350457788e-04
3.202808147761970758e-04
5.580389406532049179e-04
1.000598771497607231e-03
2.696075942367315292e-03
4.938364960253238678e-03
6.039982195943593979e-03
7.154337130486965179e-03
7.505832705646753311e-03
7.581577636301517487e-03
7.299714721739292145e-03
7.011816836893558502e-03
6.427946034818887711e-03
5.695543251931667328e-03
4.703818820416927338e-03
4.001498222351074219e-03
3.564285347238183022e-03
3.159429179504513741e-03
3.124063368886709213e-03
2.933858195319771767e-03
2.998264273628592491e-03
2.890260424464941025e-03
2.847818424925208092e-03
2.817325294017791748e-03
2.874527825042605400e-03
2.848892239853739738e-03
2.795304870232939720e-03
2.901779022067785263e-03
2.820970257744193077e-03
2.780060051009058952e-03
2.786557422950863838e-03
2.691771369427442551e-03
2.800088142976164818e-03
2.789634745568037033e-03
2.863869536668062210e-03
2.801858354359865189e-03
2.625859109684824944e-03
2.831118414178490639e-03
2.649847185239195824e-03
2.756524132564663887e-03
2.522670896723866463e-03
2.771932166069746017e-03
2.755108522251248360e-03
2.616235055029392242e-03
2.725340891629457474e-03
2.697935095056891441e-03
2.859415486454963684e-03
2.637459430843591690e-03
2.799172420054674149e-03
2.540344139561057091e-03
2.863803412765264511e-03
2.547104610130190849e-03
2.742785261943936348e-03
2.484865020960569382e-03
2.575889462605118752e-03
2.623928477987647057e-03
2.461462048813700676e-03
2.839801367372274399e-03
2.802975242957472801e-03
2.691504778340458870e-03
2.669730689376592636e-03
2.612811280414462090e-03
2.614464377984404564e-03
2.704767277464270592e-03
2.659716410562396049e-03
2.662455895915627480e-03
2.652862574905157089e-03
2.664242638275027275e-03
2.656677272170782089e-03
2.426120685413479805e-03
2.605229848995804787e-03
2.610430587083101273e-03
2.732324879616498947e-03
2.585798967629671097e-03
2.631992101669311523e-03
2.651880029588937759e-03
2.689859597012400627e-03
2.523360308259725571e-03
2.452249173074960709e-03
2.657759934663772583e-03
2.662364160642027855e-03
2.575255697593092918e-03
2.614896977320313454e-03
2.527230186387896538e-03
2.573879668489098549e-03
2.612933050841093063e-03
2.563508227467536926e-03
2.694427967071533203e-03
2.630870789289474487e-03
2.549908589571714401e-03
2.635050797834992409e-03
2.558477921411395073e-03
2.657960401847958565e-03
2.557378262281417847e-03
2.777088200673460960e-03
2.619206905364990234e-03
2.616401063278317451e-03
2.593524986878037453e-03
2.719570416957139969e-03
2.696197712793946266e-03
2.679127268493175507e-03
2.670840360224246979e-03
2.737256465479731560e-03
2.713390393182635307e-03
2.801541471853852272e-03
2.800173126161098480e-03
2.660345518961548805e-03
2.846353920176625252e-03
2.755206543952226639e-03
2.586003625765442848e-03
2.870393218472599983e-03
2.602990483865141869e-03
2.803130075335502625e-03
2.820289926603436470e-03
2.732040360569953918e-03
2.829011064022779465e-03
2.724264748394489288e-03
2.770537044852972031e-03
2.654733834788203239e-03
2.743692602962255478e-03
2.733991947025060654e-03
2.552276942878961563e-03
2.764488803222775459e-03
2.827029209583997726e-03
2.411497058346867561e-03
2.943272469565272331e-03
3.009637352079153061e-03
2.736673457548022270e-03
2.982466947287321091e-03
2.797426655888557434e-03
2.815624000504612923e-03
2.971974434331059456e-03
2.860361477360129356e-03
2.827971009537577629e-03
2.841352019459009171e-03
2.783259144052863121e-03
2.749413950368762016e-03
2.794319996610283852e-03
2.749357838183641434e-03
2.710880711674690247e-03
2.787396311759948730e-03
2.816502237692475319e-03
2.811575075611472130e-03
2.789692487567663193e-03
2.776232082396745682e-03
2.783473581075668335e-03
2.914610318839550018e-03
2.934054238721728325e-03
2.982647391036152840e-03
2.903910819441080093e-03
2.997939474880695343e-03
2.994735725224018097e-03
2.939983271062374115e-03
2.930399263277649879e-03
2.784621203318238258e-03
2.883067820221185684e-03
2.950614318251609802e-03
2.856272272765636444e-03
2.929286798462271690e-03
2.918514423072338104e-03
2.996946452185511589e-03
3.076400142163038254e-03
2.988597378134727478e-03
2.947402186691761017e-03
3.089501988142728806e-03
2.999155782163143158e-03
2.973311580717563629e-03
2.945201471447944641e-03
2.997770672664046288e-03
2.993556903675198555e-03
2.960975980386137962e-03
3.062513424083590508e-03
2.978466218337416649e-03
3.095721127465367317e-03
3.017122857272624969e-03
2.983604557812213898e-03
3.110381541773676872e-03
3.109629265964031219e-03
3.045166609808802605e-03
3.096371656283736229e-03
3.148329909890890121e-03
3.163332585245370865e-03
3.014524001628160477e-03
3.192694624885916710e-03
3.124725539237260818e-03
3.246189793571829796e-03
3.327177138999104500e-03
3.336974652484059334e-03
3.518627956509590149e-03
3.855269635096192360e-03
3.443097462877631187e-03
3.875316120684146881e-03
4.044318106025457382e-03
4.137202166020870209e-03
4.782813601195812225e-03
5.666148848831653595e-03
5.504109431058168411e-03
3.857337404042482376e-03
3.554329508915543556e-03
5.276216659694910049e-03
6.114961579442024231e-03
5.757897626608610153e-03
6.977752316743135452e-03
7.978974841535091400e-03
9.014683775603771210e-03
8.503770455718040466e-03
7.093219552189111710e-03
8.090060204267501831e-03
9.753650985658168793e-03
1.028047036379575729e-02
1.096771471202373505e-02
1.135208457708358765e-02
1.181525085121393204e-02
1.277975272387266159e-02
1.404920499771833420e-02
1.380241475999355316e-02
1.294026710093021393e-02
1.283187977969646454e-02
1.215140055865049362e-02
1.344478130340576172e-02
1.196158025413751602e-02
1.287895906716585159e-02
1.333534903824329376e-02
1.502125803381204605e-02
1.355465594679117203e-02
1.379364822059869766e-02
1.475381292402744293e-02
1.481132116168737411e-02
1.447550579905509949e-02
1.378185115754604340e-02
1.551568228751420975e-02
1.275820657610893250e-02
8.871964178979396820e-03
6.133524235337972641e-03
3.749020630493760109e-03
1.477561774663627148e-03
4.811440885532647371e-04
1.138611260103061795e-04
2.503741416148841381e-05
1.049584534484893084e-05
9.157135536952409893e-06
2.043355152636650018e-06
4.218425146973459050e-07
