3.035637163861792942e-08
7.425202852573420387e-07
4.247859578754287213e-06
1.348253317701164633e-05
1.864018668129574507e-05
2.712477544264402241e-05
3.643167292466387153e-05
6.001539077260531485e-05
1.134538397309370339e-04
1.873591099865734577e-04
2.539955603424459696e-04
4.650683840736746788e-04
8.459621458314359188e-04
2.400950528681278229e-03
4.436500836163759232e-03
5.536377895623445511e-03
6.650239694863557816e-03
7.129867095500230789e-03
7.120077032595872879e-03
6.898438557982444763e-03
6.744601298123598099e-03
6.218586117029190063e-03
5.374632310122251511e-03
4.451388958841562271e-03
3.758724546059966087e-03
3.373038722202181816e-03
3.106983844190835953e-03
2.946852939203381538e-03
2.850970020517706871e-03
2.801417373120784760e-03
2.772280247882008553e-03
2.740389900282025337e-03
2.737300936132669449e-03
2.714502857998013496e-03
2.730938140302896500e-03
2.766452264040708542e-03
2.766319084912538528e-03
2.706255996599793434e-03
2.667306922376155853e-03
2.668856410309672356e-03
2.664899453520774841e-03
2.668518805876374245e-03
2.649434609338641167e-03
2.646566601470112801e-03
2.587107941508293152e-03
2.578772604465484619e-03
2.583198715001344681e-03
2.619376406073570251e-03
2.604150213301181793e-03
2.590206451714038849e-03
2.540050074458122253e-03
2.579469466581940651e-03
2.530083060264587402e-03
2.602641237899661064e-03
2.609110437333583832e-03
2.602864522486925125e-03
2.616360550746321678e-03
2.596149453893303871e-03
2.621090738102793694e-03
2.595687285065650940e-03
2.615115372464060783e-03
2.594952238723635674e-03
2.496583852916955948e-03
2.511278260499238968e-03
2.546825911849737167e-03
2.533688442781567574e-03
2.562802284955978394e-03
2.593994839116930962e-03
2.631378592923283577e-03
2.608922775834798813e-03
2.620243234559893608e-03
2.579162828624248505e-03
2.601947635412216187e-03
2.584371250122785568e-03
2.594655146822333336e-03
2.601584652438759804e-03
2.610127674415707588e-03
2.576141152530908585e-03
2.562387380748987198e-03
2.565887989476323128e-03
2.576388418674468994e-03
2.598720137029886246e-03
2.614024560898542404e-03
2.612475072965025902e-03
2.577389357611536980e-03
2.597675425931811333e-03
2.599432831630110741e-03
2.571628428995609283e-03
2.598598832264542580e-03
2.647907938808202744e-03
2.595556434243917465e-03
2.635009353980422020e-03
2.620981074869632721e-03
2.612758893519639969e-03
2.640515798702836037e-03
2.593873767182230949e-03
2.556284423917531967e-03
2.565123606473207474e-03
2.557270694524049759e-03
2.529499819502234459e-03
2.514589577913284302e-03
2.547970274463295937e-03
2.548378426581621170e-03
2.624661894515156746e-03
2.571027958765625954e-03
2.601156709715723991e-03
2.578007290139794350e-03
2.680076053366065025e-03
2.709779422730207443e-03
2.703672973439097404e-03
2.711079083383083344e-03
2.719967393204569817e-03
2.758386544883251190e-03
2.771794563159346581e-03
2.770208055153489113e-03
2.714557573199272156e-03
2.772031584754586220e-03
2.809055382385849953e-03
2.735684160143136978e-03
2.804710529744625092e-03
2.783620730042457581e-03
2.776083303615450859e-03
2.792423358187079430e-03
2.838956192135810852e-03
2.823458286002278328e-03
2.800969872623682022e-03
2.829007338732481003e-03
2.799507230520248413e-03
2.811807440593838692e-03
2.775093540549278259e-03
2.851557917892932892e-03
2.777637680992484093e-03
2.789512742310762405e-03
2.794559579342603683e-03
2.853358164429664612e-03
2.856423612684011459e-03
2.846644259989261627e-03
2.789707621559500694e-03
2.807096578180789948e-03
2.828929340466856956e-03
2.834132639691233635e-03
2.842144807800650597e-03
2.860419685021042824e-03
2.820983761921525002e-03
2.875749487429857254e-03
2.848981646820902824e-03
2.888670191168785095e-03
2.919397316873073578e-03
2.858864143490791321e-03
2.859733533114194870e-03
2.903983695432543755e-03
2.876635175198316574e-03
2.939292928203940392e-03
2.944995649158954620e-03
2.909652655944228172e-03
2.933122217655181885e-03
2.958511235192418098e-03
2.896885620430111885e-03
2.958815777674317360e-03
2.948409877717494965e-03
2.959441160783171654e-03
2.942043123766779900e-03
2.908009570091962814e-03
2.980293938890099525e-03
2.963507780805230141e-03
2.989687491208314896e-03
2.951039932668209076e-03
2.991634421050548553e-03
2.962481696158647537e-03
2.951283473521471024e-03
2.995063550770282745e-03
2.996213035658001900e-03
2.989440457895398140e-03
2.923544030636548996e-03
3.015155903995037079e-03
2.997572068125009537e-03
3.033121349290013313e-03
3.055128036066889763e-03
3.045538207516074181e-03
3.083276795223355293e-03
3.125227056443691254e-03
3.114054445177316666e-03
3.128789830952882767e-03
3.129542805254459381e-03
3.130854340270161629e-03
3.149566473439335823e-03
3.155239392071962357e-03
3.134185448288917542e-03
3.175743389874696732e-03
3.177937818691134453e-03
3.201805520802736282e-03
3.211746690794825554e-03
3.290394553914666176e-03
3.198156598955392838e-03
3.321460448205471039e-03
3.380704671144485474e-03
3.421134781092405319e-03
3.511895425617694855e-03
4.254271276295185089e-03
3.294501686468720436e-03
3.875448368489742279e-03
4.003649577498435974e-03
4.295469727367162704e-03
5.542267579585313797e-03
6.965515203773975372e-03
5.981195252388715744e-03
3.397420980036258698e-03
3.046361263841390610e-03
5.724999122321605682e-03
6.547598168253898621e-03
5.855722818523645401e-03
7.254493888467550278e-03
8.178268559277057648e-03
9.542731568217277527e-03
8.905725553631782532e-03
7.423200644552707672e-03
8.474778383970260620e-03
1.050049811601638794e-02
1.080845110118389130e-02
1.111795939505100250e-02
1.166837103664875031e-02
1.238315831869840622e-02
1.374873053282499313e-02
1.498538255691528320e-02
1.344506442546844482e-02
1.256939023733139038e-02
1.204883214086294174e-02
1.219296269118785858e-02
1.352751534432172775e-02
1.238571386784315109e-02
1.343837473541498184e-02
1.321618352085351944e-02
1.450929511338472366e-02
1.373103260993957520e-02
1.431182585656642914e-02
1.478917710483074188e-02
1.448152028024196625e-02
1.434157416224479675e-02
1.354752853512763977e-02
1.591348834335803986e-02
1.220935583114624023e-02
8.284010924398899078e-03
5.685496143996715546e-03
3.539114957675337791e-03
1.345448894426226616e-03
4.463597724679857492e-04
1.032475556712597609e-04
2.289235453645233065e-05
9.692083949630614370e-06
5.510394657903816551e-06
2.538021817599656060e-06
5.070042448096501175e-07
