4.640585018478304846e-07
1.328568032477051020e-05
8.340836211573332548e-05
1.379313616780564189e-04
2.453530905768275261e-04
3.167253162246197462e-04
5.198214203119277954e-04
8.657517028041183949e-04
1.394195132888853550e-03
2.056258497759699821e-03
3.327836748212575912e-03
6.020370870828628540e-03
1.057588122785091400e-02
2.783053368330001831e-02
5.126224085688591003e-02
6.113810092210769653e-02
6.945331394672393799e-02
6.977007538080215454e-02
6.808415800333023071e-02
6.133567169308662415e-02
5.250721424818038940e-02
4.619869217276573181e-02
3.299748897552490234e-02
1.987337879836559296e-02
1.188164670020341873e-02
7.591792847961187363e-03
4.782734904438257217e-03
3.832517890259623528e-03
2.816108288243412971e-03
2.637450350448489189e-03
2.377899829298257828e-03
2.083403989672660828e-03
2.423979574814438820e-03
1.812557922676205635e-03
1.929134828969836235e-03
1.632398576475679874e-03
2.228497527539730072e-03
1.935373409651219845e-03
2.518450608476996422e-03
1.819213153794407845e-03
3.051864448934793472e-03
2.066547051072120667e-03
1.707058399915695190e-03
1.679796492680907249e-03
2.361768856644630432e-03
1.194263808429241180e-03
2.180238720029592514e-03
1.885081874206662178e-03
1.111369580030441284e-03
1.104157767258584499e-03
3.286476247012615204e-03
3.794922726228833199e-03
2.028047572821378708e-03
1.025901059620082378e-03
1.679524546489119530e-03
3.615592839196324348e-03
2.008754061535000801e-03
3.569765714928507805e-03
1.683683134615421295e-03
4.322939552366733551e-03
3.610118990764021873e-03
1.360555063001811504e-03
2.938953461125493050e-03
1.940362504683434963e-03
1.491110306233167648e-03
1.148477080278098583e-03
2.524026902392506599e-03
1.574660069309175014e-03
2.206344623118638992e-03
1.523700775578618050e-03
2.073586219921708107e-03
1.645256183110177517e-03
1.074325293302536011e-03
1.441709115169942379e-03
1.454176148399710655e-03
1.237202901393175125e-03
2.234555082395672798e-03
1.560946810059249401e-03
1.486261026002466679e-03
1.898819697089493275e-03
1.376253552734851837e-03
8.953236974775791168e-04
1.565209939144551754e-03
2.011201577261090279e-03
2.299643587321043015e-03
2.383126877248287201e-03
1.969468547031283379e-03
1.846431754529476166e-03
1.401927671395242214e-03
2.118375618010759354e-03
1.342947129160165787e-03
2.054839162155985832e-03
2.141839824616909027e-03
2.368364715948700905e-03
2.382486360147595406e-03
1.960186287760734558e-03
2.346339868381619453e-03
1.644949312321841717e-03
2.350972732529044151e-03
1.626950339414179325e-03
1.570382388308644295e-03
1.399357104673981667e-03
1.811847789213061333e-03
2.257514977827668190e-03
2.052004449069499969e-03
1.869465922936797142e-03
1.712047262117266655e-03
1.616998109966516495e-03
1.893087523058056831e-03
1.756175421178340912e-03
1.504669548012316227e-03
1.711464254185557365e-03
1.393812941387295723e-03
1.726360176689922810e-03
1.691215205937623978e-03
2.164933132007718086e-03
1.299725030548870564e-03
2.400597790256142616e-03
1.646788907237350941e-03
1.103006768971681595e-03
2.671506954357028008e-03
1.781691447831690311e-03
1.934536383487284184e-03
1.352134626358747482e-03
1.915755565278232098e-03
1.196290366351604462e-03
1.856937655247747898e-03
1.066478318534791470e-03
1.917667337693274021e-03
2.270589349791407585e-03
1.493565272539854050e-03
1.536722877062857151e-03
3.452233795542269945e-04
7.715733954682946205e-04
8.089664042927324772e-04
1.001410768367350101e-03
1.925391959957778454e-03
1.059383270330727100e-03
2.414667047560214996e-03
2.203058218583464622e-03
1.291888416744768620e-03
1.193120027892291546e-03
1.525750849395990372e-03
1.233499730005860329e-03
1.361544709652662277e-03
1.301446114666759968e-03
2.535904757678508759e-03
1.943490933626890182e-03
1.390854944474995136e-03
1.220966805703938007e-03
1.584353274665772915e-03
2.005249029025435448e-03
2.536489861086010933e-03
1.821377081796526909e-03
1.354342442937195301e-03
1.860681339167058468e-03
1.811070367693901062e-03
1.913071959279477596e-03
1.573708374053239822e-03
1.906433491967618465e-03
1.720823114737868309e-03
2.304228954017162323e-03
8.829510770738124847e-04
1.718080486170947552e-03
1.711609540507197380e-03
1.615078188478946686e-03
2.092700917273759842e-03
1.342525589279830456e-03
1.436873106285929680e-03
1.193052157759666443e-03
4.754515248350799084e-04
1.432831981219351292e-03
2.162831835448741913e-03
1.849994063377380371e-03
1.660088775679469109e-03
1.779246493242681026e-03
1.554100890643894672e-03
1.362739596515893936e-03
1.655935076996684074e-03
2.051511779427528381e-03
1.870393753051757812e-03
1.397298299707472324e-03
1.240663230419158936e-03
1.283061457797884941e-03
1.510312780737876892e-03
1.848064712248742580e-03
1.529337489046156406e-03
2.019237494096159935e-03
1.496151671744883060e-03
1.638159737922251225e-03
1.482443651184439659e-03
1.913872663863003254e-03
1.392153091728687286e-03
1.495818025432527065e-03
1.614501001313328743e-03
1.919545815326273441e-03
1.734832534566521645e-03
1.703992951661348343e-03
1.841261750087141991e-03
1.372275059111416340e-03
1.500449725426733494e-03
1.295595080591738224e-03
2.069851616397500038e-03
1.726347487419843674e-03
1.915397006087005138e-03
1.625491888262331486e-03
1.260882359929382801e-03
1.629058271646499634e-03
1.798562589101493359e-03
1.715719816274940968e-03
1.913875690661370754e-03
2.150971908122301102e-03
2.321111271157860756e-03
2.039740560576319695e-03
1.323756296187639236e-03
1.013997360132634640e-03
1.631977269425988197e-03
2.110026776790618896e-03
2.096323063597083092e-03
3.297907998785376549e-03
3.031927393749356270e-03
1.882786978967487812e-03
1.672170357778668404e-03
3.415351035073399544e-03
2.912482013925909996e-03
2.609587041661143303e-03
1.580327050760388374e-03
1.297784852795302868e-03
1.402894267812371254e-03
1.945742755196988583e-03
1.741832238622009754e-03
1.292278175242245197e-03
1.943106879480183125e-03
1.865028985776007175e-03
2.152846660465002060e-03
1.135334488935768604e-03
1.353634637780487537e-03
1.684352289885282516e-03
7.790860254317522049e-04
1.026034820824861526e-03
8.875555940903723240e-04
4.979262012057006359e-04
4.434789880178868771e-04
5.949288606643676758e-04
4.073009476996958256e-04
4.978920696885325015e-05
0.000000000000000000e+00
0.000000000000000000e+00
0.000000000000000000e+00
0.000000000000000000e+00
0.000000000000000000e+00
0.000000000000000000e+00
