4.600538616728044872e-08
2.177307123929494992e-06
1.142065775638911873e-05
4.143093610764481127e-05
6.598687468795105815e-05
8.054195495788007975e-05
1.092465099645778537e-04
1.841291523305699229e-04
3.265258274041116238e-04
6.238876376301050186e-04
7.673170766793191433e-04
1.425579888746142387e-03
2.679450437426567078e-03
7.067513186484575272e-03
1.287622842937707901e-02
1.586435548961162567e-02
1.852369681000709534e-02
1.926838420331478119e-02
1.828690432012081146e-02
1.739858835935592651e-02
1.618485338985919952e-02
1.433770637959241867e-02
1.116318348795175552e-02
8.062898181378841400e-03
5.840758327394723892e-03
4.620052874088287354e-03
3.857912728562951088e-03
3.475758712738752365e-03
3.238559234887361526e-03
3.117797896265983582e-03
3.038136987015604973e-03
2.962801605463027954e-03
2.928539179265499115e-03
2.905591856688261032e-03
2.870594849810004234e-03
2.860505133867263794e-03
2.847236115485429764e-03
2.811333630234003067e-03
2.806865377351641655e-03
2.781427931040525436e-03
2.788491779938340187e-03
2.814415376633405685e-03
2.752107335254549980e-03
2.764390083029866219e-03
2.756870118901133537e-03
2.778501948341727257e-03
2.753100823611021042e-03
2.780778333544731140e-03
2.761884359642863274e-03
2.735174261033535004e-03
2.729816362261772156e-03
2.710899105295538902e-03
2.714772243052721024e-03
2.756597939878702164e-03
2.745459321886301041e-03
2.764174481853842735e-03
2.781984861940145493e-03
2.727787941694259644e-03
2.764600096270442009e-03
2.747377613559365273e-03
2.750307787209749222e-03
2.773921005427837372e-03
2.751506632193922997e-03
2.767728641629219055e-03
2.778448164463043213e-03
2.772843930870294571e-03
2.780942246317863464e-03
2.774478634819388390e-03
2.782390452921390533e-03
2.790143946185708046e-03
2.774291206151247025e-03
2.783741103485226631e-03
2.798216883093118668e-03
2.806143136695027351e-03
2.818378154188394547e-03
2.816175343468785286e-03
2.822995884343981743e-03
2.803789684548974037e-03
2.816826570779085159e-03
2.816024702042341232e-03
2.849327865988016129e-03
2.839303808286786079e-03
2.835889579728245735e-03
2.885459456592798233e-03
2.832073252648115158e-03
2.883897395804524422e-03
2.885267604142427444e-03
2.941812155768275261e-03
2.898769918829202652e-03
2.962247235700488091e-03
2.946445951238274574e-03
2.959999023005366325e-03
2.967556240037083626e-03
2.982706995680928230e-03
2.985295141115784645e-03
2.947383327409625053e-03
2.975561888888478279e-03
2.963673556223511696e-03
2.977768890559673309e-03
3.006812417879700661e-03
2.931576920673251152e-03
3.004112746566534042e-03
3.005683189257979393e-03
3.050416242331266403e-03
3.112726612016558647e-03
3.091501304879784584e-03
3.140947315841913223e-03
3.176042344421148300e-03
3.197846701368689537e-03
3.237833967432379723e-03
3.228832734748721123e-03
3.216909943148493767e-03
3.291424596682190895e-03
3.282902995124459267e-03
3.260173369199037552e-03
3.278699005022644997e-03
3.287401748821139336e-03
3.285021753981709480e-03
3.302411874756217003e-03
3.264998784288764000e-03
3.232109826058149338e-03
3.280214034020900726e-03
3.305582096800208092e-03
3.320950083434581757e-03
3.301836783066391945e-03
3.319891868159174919e-03
3.349258098751306534e-03
3.308627055957913399e-03
3.349928651005029678e-03
3.325002966448664665e-03
3.293863032013177872e-03
3.284960985183715820e-03
3.439052030444145203e-03
3.302716417238116264e-03
3.428272437304258347e-03
3.396231681108474731e-03
3.369754878804087639e-03
3.355227876454591751e-03
3.338968614116311073e-03
3.402939764782786369e-03
3.368258010596036911e-03
3.401825204491615295e-03
3.376376815140247345e-03
3.373015904799103737e-03
3.467904636636376381e-03
3.399725537747144699e-03
3.480858169496059418e-03
3.483778331428766251e-03
3.428544849157333374e-03
3.432293655350804329e-03
3.490654751658439636e-03
3.472815267741680145e-03
3.521678037941455841e-03
3.556165378540754318e-03
3.525530919432640076e-03
3.532307920977473259e-03
3.557197283953428268e-03
3.520634258165955544e-03
3.566211322322487831e-03
3.583177458494901657e-03
3.583891317248344421e-03
3.567845560610294342e-03
3.627482568845152855e-03
3.549911547452211380e-03
3.577818861231207848e-03
3.598217153921723366e-03
3.601112635806202888e-03
3.647385165095329285e-03
3.629764541983604431e-03
3.643722971901297569e-03
3.638719208538532257e-03
3.628725651651620865e-03
3.590391483157873154e-03
3.652413375675678253e-03
3.687652759253978729e-03
3.648473881185054779e-03
3.679010318592190742e-03
3.718707012012600899e-03
3.741169348359107971e-03
3.783990163356065750e-03
3.789103822782635689e-03
3.799970028921961784e-03
3.792734583839774132e-03
3.781880019232630730e-03
3.782680258154869080e-03
3.788302885368466377e-03
3.789640963077545166e-03
3.773602657020092010e-03
3.764765569940209389e-03
3.775571472942829132e-03
3.772531170397996902e-03
3.772308118641376495e-03
3.787830006331205368e-03
3.793713636696338654e-03
3.827029373496770859e-03
3.867979627102613449e-03
3.914745990186929703e-03
3.969157580286264420e-03
4.067393485456705093e-03
4.203660879284143448e-03
4.379631485790014267e-03
4.410231485962867737e-03
4.522959701716899872e-03
4.603389184921979904e-03
4.720604978501796722e-03
4.765030462294816971e-03
4.763196222484111786e-03
4.768398124724626541e-03
5.037415772676467896e-03
5.339543335139751434e-03
5.571596324443817139e-03
6.092936266213655472e-03
6.451040972024202347e-03
6.688582710921764374e-03
7.008831948041915894e-03
6.809326354414224625e-03
6.858165375888347626e-03
6.967922672629356384e-03
6.685375235974788666e-03
6.481828168034553528e-03
5.997450556606054306e-03
5.157656501978635788e-03
7.133143022656440735e-03
7.666039746254682541e-03
7.316497620195150375e-03
7.248621899634599686e-03
7.114005275070667267e-03
7.088836748152971268e-03
7.001176476478576660e-03
6.674020085483789444e-03
6.796228233724832535e-03
7.241389248520135880e-03
7.606802973896265030e-03
7.569228764623403549e-03
7.691865786910057068e-03
7.976724766194820404e-03
8.062491193413734436e-03
8.065391331911087036e-03
6.253989879041910172e-03
4.859002307057380676e-03
2.685275161638855934e-03
2.497010398656129837e-03
2.023379784077405930e-03
1.298438990488648415e-03
5.404525436460971832e-04
1.875968300737440586e-04
4.532232924248091877e-05
1.104578859667526558e-05
6.215939720277674496e-06
2.655290700204204768e-06
1.399879124619474169e-06
1.514534773150444380e-07
