0.000000000000000000e+00
5.022267214371822774e-05
4.493751475820317864e-05
1.112484096665866673e-04
9.953401604434475303e-05
1.284541940549388528e-04
2.334847813472151756e-04
3.040623269043862820e-04
5.640288582071661949e-04
1.198621816001832485e-03
1.338481553830206394e-03
4.768061451613903046e-03
6.324539892375469208e-03
5.067719519138336182e-02
1.725334301590919495e-02
3.678635135293006897e-02
3.324384614825248718e-02
2.869415469467639923e-02
2.329054847359657288e-02
1.976990699768066406e-02
1.568551734089851379e-02
1.291630230844020844e-02
2.126374095678329468e-02
1.336989272385835648e-02
9.046976454555988312e-03
6.284622009843587875e-03
5.200024694204330444e-03
3.998604603111743927e-03
3.554579103365540504e-03
2.737390110269188881e-03
2.604463370516896248e-03
2.386155305430293083e-03
2.198190195485949516e-03
2.061242470517754555e-03
3.512650029733777046e-03
3.243822138756513596e-03
2.691512927412986755e-03
2.579167019575834274e-03
1.306635909713804722e-03
1.044388511218130589e-03
2.106808824464678764e-03
1.975218765437602997e-03
1.994525082409381866e-03
1.676109852269291878e-03
1.829161774367094040e-03
8.992083021439611912e-04
1.021223957650363445e-03
6.572072161361575127e-04
5.744188674725592136e-04
2.750820713117718697e-04
2.717731404118239880e-04
2.385543775744736195e-04
2.462686388753354549e-04
2.335593744646757841e-04
2.208884834544733167e-04
3.926654171664267778e-04
3.081837203353643417e-04
1.997395593207329512e-04
3.043255419470369816e-04
2.588079369161278009e-04
2.795267791952937841e-04
2.959729463327676058e-04
2.703389036469161510e-04
2.462841803207993507e-04
6.479913135990500450e-04
5.448354640975594521e-04
5.427286378107964993e-04
5.062465206719934940e-04
1.235027331858873367e-03
9.818515973165631294e-04
1.028698869049549103e-03
8.936288650147616863e-04
8.624028996564447880e-04
1.716743456199765205e-03
1.445117406547069550e-03
1.450205687433481216e-03
1.458838116377592087e-03
1.114525715820491314e-03
8.153059752658009529e-04
1.625517383217811584e-03
1.109561766497790813e-03
1.083654118701815605e-03
9.895379189401865005e-04
1.071384176611900330e-03
7.987861754372715950e-04
8.987450855784118176e-04
1.007745857350528240e-03
1.031430554576218128e-03
1.168993883766233921e-03
2.447266015224158764e-04
8.275219588540494442e-04
8.266296936199069023e-04
2.299944870173931122e-03
1.659425441175699234e-03
2.501962240785360336e-03
3.823790466412901878e-03
1.693260739557445049e-03
1.943891169503331184e-03
2.871674718335270882e-03
1.024653087370097637e-03
1.094037899747490883e-03
1.078078756108880043e-03
4.235949891153723001e-04
4.541939706541597843e-04
6.686905398964881897e-04
3.342364449054002762e-03
3.123413771390914917e-03
2.582358894869685173e-03
3.704884788021445274e-03
8.531362982466816902e-04
2.068299567326903343e-03
2.828719792887568474e-03
2.929572947323322296e-03
1.897692680358886719e-03
2.265135291963815689e-03
1.270924811251461506e-03
8.898350060917437077e-04
7.688567275181412697e-04
8.578825509175658226e-04
6.973557756282389164e-04
9.259128710255026817e-04
3.090759739279747009e-03
2.814812585711479187e-03
2.623810898512601852e-03
1.015926362015306950e-03
3.472638491075485945e-04
1.380586763843894005e-03
4.090317816007882357e-04
8.990352507680654526e-04
4.000408225692808628e-04
3.881999582517892122e-04
5.374994361773133278e-04
6.499447772512212396e-05
8.743027865421026945e-05
3.188462578691542149e-04
2.777256886474788189e-04
8.908888557925820351e-04
3.336913650855422020e-04
9.478276479057967663e-04
8.512471104040741920e-04
1.242291764356195927e-03
7.887372048571705818e-04
1.940460992045700550e-03
1.466050744056701660e-03
1.609382219612598419e-03
2.345676999539136887e-03
1.439687097445130348e-03
9.157146560028195381e-04
9.976479923352599144e-04
1.089374534785747528e-03
1.913413405418395996e-03
1.527814543806016445e-03
1.580489915795624256e-03
6.284000119194388390e-04
2.607655012980103493e-03
2.235476393252611160e-03
1.403810339979827404e-03
8.355191093869507313e-04
8.473029010929167271e-04
1.200880971737205982e-03
5.950050544925034046e-04
3.423382877372205257e-04
3.062468604184687138e-04
6.683993269689381123e-04
4.433863330632448196e-03
4.742900375276803970e-03
1.482123858295381069e-03
1.337331254035234451e-03
1.252240326721221209e-04
5.210253293626010418e-04
1.785813074093312025e-04
1.349735888652503490e-03
7.584697450511157513e-04
2.356340701226145029e-04
1.537161995656788349e-03
2.286296803504228592e-03
5.246471613645553589e-03
2.245974028483033180e-03
1.697934418916702271e-02
6.365650333464145660e-03
6.118615856394171715e-04
9.701289236545562744e-03
5.631790962070226669e-03
8.133991621434688568e-03
9.449798963032662868e-04
4.599744454026222229e-03
6.756451446563005447e-03
7.010812405496835709e-04
3.369743702933192253e-03
5.541259422898292542e-03
6.762369070202112198e-03
1.300521777011454105e-03
1.181584969162940979e-02
1.132754329591989517e-02
5.825258791446685791e-03
1.071404945105314255e-02
9.515116922557353973e-03
5.477060098201036453e-03
1.460402924567461014e-02
1.461667194962501526e-02
3.929825033992528915e-03
1.552250701934099197e-03
5.926568061113357544e-03
8.389876224100589752e-03
1.176662510260939598e-03
3.798888064920902252e-03
1.529431203380227089e-03
7.014533039182424545e-03
1.257950346916913986e-02
8.021168410778045654e-03
1.709054037928581238e-02
1.914688199758529663e-02
1.437013410031795502e-02
1.460703462362289429e-02
3.778192913159728050e-03
3.632001345977187157e-03
5.197972524911165237e-03
3.867139108479022980e-03
9.352438151836395264e-03
3.786358982324600220e-03
3.688055090606212616e-03
7.944679819047451019e-03
1.373519073240458965e-03
9.338748641312122345e-03
8.642941713333129883e-03
4.552945028990507126e-03
1.513689756393432617e-03
2.674424322322010994e-03
1.773336087353527546e-03
7.830250076949596405e-03
7.058265153318643570e-03
8.015635423362255096e-03
4.209005739539861679e-03
5.545529071241617203e-03
2.913106000050902367e-03
2.917613834142684937e-03
6.873325910419225693e-03
2.192148566246032715e-02
2.124229073524475098e-02
4.454164765775203705e-03
1.164527423679828644e-02
1.638409122824668884e-02
3.689858363941311836e-03
6.305835209786891937e-03
2.133275847882032394e-03
6.372096249833703041e-04
1.485709362896159291e-04
1.940129368449561298e-05
0.000000000000000000e+00
7.554106105089886114e-06
0.000000000000000000e+00
0.000000000000000000e+00
