1.111709389078896493e-05
6.377155659720301628e-05
8.901358523871749640e-05
3.062523610424250364e-04
2.856601495295763016e-04
3.462922177277505398e-04
5.361511139199137688e-04
9.580784826539456844e-04
1.687704236246645451e-03
3.398547181859612465e-03
3.756578778848052025e-03
1.338948681950569153e-02
1.656445488333702087e-02
1.372143179178237915e-01
4.655075073242187500e-02
9.324219822883605957e-02
8.231117576360702515e-02
6.898054480552673340e-02
5.445322021842002869e-02
4.405032098293304443e-02
3.457374498248100281e-02
2.647912129759788513e-02
4.205450043082237244e-02
2.069926820695400238e-02
1.233586762100458145e-02
6.131296511739492416e-03
3.792176721617579460e-03
2.658435609191656113e-03
2.147475723177194595e-03
2.257010666653513908e-03
1.851610490120947361e-03
1.368622295558452606e-03
1.336779096163809299e-03
1.203116727992892265e-03
2.319813705980777740e-03
2.214527223259210587e-03
1.809113891795277596e-03
1.557823852635920048e-03
6.287680589593946934e-04
9.071500389836728573e-04
1.570296124555170536e-03
1.338506932370364666e-03
1.310990075580775738e-03
1.129040610976517200e-03
1.042967778630554676e-03
5.163878086023032665e-04
3.534364805091172457e-04
3.695412597153335810e-04
6.271180463954806328e-04
1.501114020356908441e-04
3.298158408142626286e-04
3.024392353836447001e-04
9.979416790883988142e-05
2.324048982700332999e-04
1.870630658231675625e-04
1.324891491094604135e-04
1.211362759931944311e-04
1.024165831040591002e-04
1.034472370520234108e-04
7.981438830029219389e-05
1.808074448490515351e-04
1.794549898477271199e-04
1.209740075864829123e-04
1.885753299575299025e-04
2.826083509717136621e-04
4.090341390110552311e-04
2.784145472105592489e-04
3.573821159079670906e-04
6.840201094746589661e-04
6.696393829770386219e-04
6.713867769576609135e-04
4.166110593359917402e-04
5.666561773978173733e-04
1.039754832163453102e-03
8.564204908907413483e-04
7.833213894627988338e-04
7.372675463557243347e-04
7.883648504503071308e-04
7.262322469614446163e-04
8.097443496808409691e-04
7.530176662839949131e-04
5.725817754864692688e-04
5.521740531548857689e-04
5.733275902457535267e-04
5.611164378933608532e-04
3.219401405658572912e-04
5.935962544754147530e-04
4.910327261313796043e-04
5.030658794566988945e-04
1.022905635181814432e-04
6.693963659927248955e-04
5.300760967656970024e-04
1.487992121838033199e-03
1.080370275303721428e-03
1.416276674717664719e-03
2.136783441528677940e-03
9.951249230653047562e-04
1.264521852135658264e-03
1.466542482376098633e-03
8.611404919065535069e-04
7.147720316424965858e-04
5.427666474133729935e-04
3.158703038934618235e-04
3.300743701402097940e-04
2.828902506735175848e-04
1.576441223733127117e-03
1.983660506084561348e-03
1.886792480945587158e-03
2.136198803782463074e-03
5.332006257958710194e-04
1.268392079509794712e-03
2.049789298325777054e-03
1.667592674493789673e-03
7.776620914228260517e-04
1.592902117408812046e-03
8.303482900373637676e-04
5.351377767510712147e-04
3.761567641049623489e-04
5.179896834306418896e-04
2.588136121630668640e-04
5.906068254262208939e-04
1.851376611739397049e-03
1.790418522432446480e-03
1.163920038379728794e-03
5.178923020139336586e-04
4.166474391240626574e-04
5.812552408315241337e-04
1.791158865671604872e-04
3.889797953888773918e-04
1.995963684748858213e-04
3.240824735257774591e-04
3.618799091782420874e-04
0.000000000000000000e+00
1.447704198653809726e-05
3.416826803004369140e-05
2.680404868442565203e-04
3.888680657837539911e-04
2.258829626953229308e-04
5.431849858723580837e-04
5.679320311173796654e-04
4.735117836389690638e-04
6.471594097092747688e-04
1.134699909016489983e-03
5.018524243496358395e-04
1.008415711112320423e-03
1.176861347630620003e-03
1.025654724799096584e-03
3.441745357122272253e-04
5.470293108373880386e-04
8.166587213054299355e-04
8.788536651991307735e-04
9.424531017430126667e-04
8.860485977493226528e-04
3.945806238334625959e-04
1.246334402821958065e-03
1.050468068569898605e-03
4.248440382070839405e-04
7.768422947265207767e-04
3.483397304080426693e-04
7.415509899146854877e-04
3.400105924811214209e-04
3.293286426924169064e-04
1.606049772817641497e-04
4.799843882210552692e-04
2.491969848051667213e-03
2.608403563499450684e-03
1.005195081233978271e-03
6.319666281342506409e-04
8.207953214878216386e-05
1.852883578976616263e-04
2.527243050280958414e-04
6.853803643025457859e-04
4.672847862821072340e-04
1.295416732318699360e-04
7.757795392535626888e-04
1.428047427907586098e-03
2.110266825184226036e-03
1.139389933086931705e-03
8.659994229674339294e-03
2.844635862857103348e-03
1.299466239288449287e-04
4.916446749120950699e-03
2.714040922001004219e-03
3.495752578601241112e-03
5.233397823758423328e-04
2.331181894987821579e-03
2.908413298428058624e-03
3.969958052039146423e-04
1.432568649761378765e-03
2.642987994477152824e-03
2.465869067236781120e-03
6.000506109558045864e-04
5.171517375856637955e-03
4.694232717156410217e-03
2.101757097989320755e-03
3.871440421789884567e-03
4.040283616632223129e-03
2.214137231931090355e-03
5.273218266665935516e-03
6.191085558384656906e-03
1.312679029069840908e-03
5.369409918785095215e-04
2.266936469823122025e-03
3.359077498316764832e-03
5.307217943482100964e-04
1.646610675379633904e-03
7.827159715816378593e-04
2.188335405662655830e-03
4.131902940571308136e-03
2.360257552936673164e-03
5.445062648504972458e-03
6.941083353012800217e-03
4.908210132271051407e-03
4.355506971478462219e-03
1.282201264984905720e-03
9.837531251832842827e-04
1.110996236093342304e-03
1.160556566901504993e-03
2.602739026769995689e-03
8.881441899575293064e-04
9.643379598855972290e-04
2.410835120826959610e-03
3.242851526010781527e-04
2.952988725155591965e-03
2.701919525861740112e-03
1.027022837661206722e-03
5.177766433916985989e-04
7.351862732321023941e-04
6.308337324298918247e-04
1.917310641147196293e-03
2.412823028862476349e-03
2.553577534854412079e-03
1.302623189985752106e-03
1.371194724924862385e-03
1.008667750284075737e-03
9.236472542397677898e-04
1.628603902645409107e-03
6.517390720546245575e-03
5.314818583428859711e-03
8.120777201838791370e-04
1.433153287507593632e-03
3.499130485579371452e-03
7.951492443680763245e-04
1.340156886726617813e-03
6.006482872180640697e-04
2.530023048166185617e-04
7.036028546281158924e-05
8.673687261762097478e-06
0.000000000000000000e+00
1.990792952710762620e-06
0.000000000000000000e+00
0.000000000000000000e+00
