0.000000000000000000e+00
4.026536771561950445e-05
4.027690374641679227e-05
1.002679564408026636e-04
1.284680911339819431e-04
1.095359475584700704e-04
2.749937702901661396e-04
4.336166603025048971e-04
5.652070394717156887e-04
1.590671250596642494e-03
1.670504454523324966e-03
5.441699642688035965e-03
7.469992619007825851e-03
6.246281042695045471e-02
2.091267332434654236e-02
4.431026801466941833e-02
3.827200084924697876e-02
3.281886130571365356e-02
2.674092911183834076e-02
2.096729166805744171e-02
1.824838668107986450e-02
1.437918934971094131e-02
2.399139851331710815e-02
1.405239570885896683e-02
8.423980325460433960e-03
5.601659417152404785e-03
3.907804843038320541e-03
3.791477298364043236e-03
2.973554190248250961e-03
2.832994330674409866e-03
2.188189886510372162e-03
2.200356451794505119e-03
1.830596243962645531e-03
1.745322952046990395e-03
3.170991083607077599e-03
2.888165414333343506e-03
2.462400123476982117e-03
2.213734434917569160e-03
1.340262941084802151e-03
9.786376031115651131e-04
1.817362383008003235e-03
1.713919918984174728e-03
1.580634852871298790e-03
1.535017276182770729e-03
1.553522888571023941e-03
1.002900768071413040e-03
7.538409554399549961e-04
6.532785482704639435e-04
5.700942710973322392e-04
1.887817634269595146e-04
2.948144101537764072e-04
3.746307047549635172e-04
2.434706548228859901e-04
2.950019261334091425e-04
2.408984146313741803e-04
1.768117217579856515e-04
2.121384022757411003e-04
2.657842123880982399e-04
3.555841394700109959e-04
3.058774454984813929e-04
1.687849144218489528e-04
1.846923842094838619e-04
2.001077809836715460e-04
1.840971672208979726e-04
5.945762386545538902e-04
6.008505006320774555e-04
7.119326619431376457e-04
4.590842290781438351e-04
9.648245177231729031e-04
1.120089087635278702e-03
9.423377923667430878e-04
8.311330457217991352e-04
8.023167611099779606e-04
1.617461210116744041e-03
1.289334963075816631e-03
1.412285491824150085e-03
1.305468031205236912e-03
1.058081281371414661e-03
7.811475079506635666e-04
1.694666687399148941e-03
1.044277800247073174e-03
8.999463752843439579e-04
7.534442702308297157e-04
8.950327173806726933e-04
1.088337507098913193e-03
8.948668837547302246e-04
7.578459335491061211e-04
8.416767814196646214e-04
9.341788245365023613e-04
2.779314236249774694e-04
1.019122661091387272e-03
7.120433147065341473e-04
2.483915537595748901e-03
1.587820355780422688e-03
2.635340904816985130e-03
4.099905490875244141e-03
1.813621842302381992e-03
2.265220042318105698e-03
3.038725582882761955e-03
1.155210891738533974e-03
1.086118631064891815e-03
9.331667679361999035e-04
5.044830031692981720e-04
3.891193773597478867e-04
6.243107491172850132e-04
3.729359013959765434e-03
3.570793895050883293e-03
3.018652321770787239e-03
4.259335808455944061e-03
1.029276987537741661e-03
2.768928883597254753e-03
3.227724926546216011e-03
3.341360017657279968e-03
1.933242776431143284e-03
2.484829165041446686e-03
1.565989921800792217e-03
1.010249718092381954e-03
8.321258937940001488e-04
1.087796641513705254e-03
8.096512174233794212e-04
8.865154813975095749e-04
3.263183170929551125e-03
2.933431882411241531e-03
2.504950156435370445e-03
1.125509967096149921e-03
4.337633145041763783e-04
1.393635640852153301e-03
5.274095456115901470e-04
1.183041604235768318e-03
4.092068702448159456e-04
4.884221707470715046e-04
7.586801075376570225e-04
1.123093970818445086e-04
1.285935722989961505e-04
3.521464823279529810e-04
3.100771573372185230e-04
7.466073730029165745e-04
3.849701315630227327e-04
1.097330707125365734e-03
1.238171476870775223e-03
1.276841619983315468e-03
8.948475588113069534e-04
2.209359314292669296e-03
1.440515159629285336e-03
1.973278354853391647e-03
2.710152184590697289e-03
1.587216975167393684e-03
1.079769805073738098e-03
1.042616553604602814e-03
1.468201633542776108e-03
2.204863820225000381e-03
1.740596722811460495e-03
1.610506442375481129e-03
8.360515348613262177e-04
3.040143987163901329e-03
2.498555695638060570e-03
1.474692253395915031e-03
1.394106890074908733e-03
9.397006942890584469e-04
1.401717774569988251e-03
1.060538226738572121e-03
3.677890344988554716e-04
4.476365575101226568e-04
7.179642561823129654e-04
5.674042273312807083e-03
5.668921861797571182e-03
2.105164341628551483e-03
1.482094055972993374e-03
1.402280176989734173e-04
5.312751163728535175e-04
3.240417572669684887e-04
1.487351604737341404e-03
8.626946364529430866e-04
3.644739626906812191e-04
1.818658085539937019e-03
2.940571634098887444e-03
6.189716048538684845e-03
2.254736376926302910e-03
1.999657042324542999e-02
7.102595642209053040e-03
6.352054770104587078e-04
1.255261246114969254e-02
6.754477974027395248e-03
9.192045778036117554e-03
1.147919683717191219e-03
5.377730354666709900e-03
7.337414193898439407e-03
7.702407892793416977e-04
3.592838067561388016e-03
6.376214791089296341e-03
7.291594985872507095e-03
1.620350754819810390e-03
1.305181905627250671e-02
1.177341770380735397e-02
6.206759717315435410e-03
1.118454243987798691e-02
9.624253027141094208e-03
6.059012375771999359e-03
1.514170225709676743e-02
1.597070693969726562e-02
4.014468751847743988e-03
1.919273519888520241e-03
6.203682627528905869e-03
8.385444059967994690e-03
1.507164910435676575e-03
3.788688685745000839e-03
1.498587662354111671e-03
7.093268446624279022e-03
1.183092035353183746e-02
7.578411605209112167e-03
1.522158458828926086e-02
1.785807870328426361e-02
1.201604865491390228e-02
1.217483077198266983e-02
3.093439619988203049e-03
3.138441592454910278e-03
4.760321229696273804e-03
2.965380437672138214e-03
6.768156308680772781e-03
2.918022451922297478e-03
2.553029451519250870e-03
5.666589830070734024e-03
9.717142092995345592e-04
6.772796157747507095e-03
6.071656942367553711e-03
3.335854969918727875e-03
1.174550736322999001e-03
1.901421579532325268e-03
1.680817455053329468e-03
6.287124007940292358e-03
5.205943714827299118e-03
5.325275938957929611e-03
2.815661951899528503e-03
3.672264982014894485e-03
2.102133119478821754e-03
2.306852024048566818e-03
5.355084780603647232e-03
1.629617996513843536e-02
1.410141121596097946e-02
2.138495445251464844e-03
5.016439128667116165e-03
8.917537517845630646e-03
2.098248340189456940e-03
3.595746820792555809e-03
1.105588278733193874e-03
3.745537833310663700e-04
8.182935562217608094e-05
0.000000000000000000e+00
0.000000000000000000e+00
6.949006547074532136e-06
0.000000000000000000e+00
0.000000000000000000e+00
