0.000000000000000000e+00
9.808345566852949560e-06
1.657300526858307421e-05
4.761314266943372786e-05
2.994055466842837632e-05
3.112155536655336618e-05
1.079682697309181094e-04
1.671662030275911093e-04
2.327598776901140809e-04
4.669752961490303278e-04
5.438573425635695457e-04
2.079513389617204666e-03
2.634971868246793747e-03
2.399336174130439758e-02
8.272360078990459442e-03
1.652516052126884460e-02
1.504098437726497650e-02
1.346120983362197876e-02
1.171588059514760971e-02
9.293970651924610138e-03
8.662749081850051880e-03
6.998135708272457123e-03
1.289546862244606018e-02
8.068338036537170410e-03
6.562151014804840088e-03
4.561088979244232178e-03
3.735007485374808311e-03
3.087529214099049568e-03
3.053299384191632271e-03
2.152193337678909302e-03
2.135435584932565689e-03
2.202071482315659523e-03
2.051345305517315865e-03
1.800237805582582951e-03
3.450383897870779037e-03
2.777671441435813904e-03
2.747080288827419281e-03
2.665959298610687256e-03
1.231404603458940983e-03
1.327644800767302513e-03
2.029917435720562935e-03
2.075240248814225197e-03
1.794228795915842056e-03
1.724835019558668137e-03
1.585536519996821880e-03
8.308828691951930523e-04
7.322179153561592102e-04
7.787926006130874157e-04
6.051830714568495750e-04
2.663192863110452890e-04
2.064446889562532306e-04
3.130543336737900972e-04
3.267604042775928974e-04
2.702136698644608259e-04
2.400816301815211773e-04
2.555472019594162703e-04
2.965570311062037945e-04
2.446764556225389242e-04
1.877296890597790480e-04
2.383406099397689104e-04
3.058515139855444431e-04
1.959307701326906681e-04
2.262495836475864053e-04
2.598248538561165333e-04
6.715256604366004467e-04
5.701812915503978729e-04
5.560796707868576050e-04
4.813333507627248764e-04
1.174160861410200596e-03
9.094318957068026066e-04
1.019822317175567150e-03
1.064836513251066208e-03
9.454415994696319103e-04
1.506204134784638882e-03
1.579307252541184425e-03
1.683054375462234020e-03
1.385822426527738571e-03
1.114177051931619644e-03
8.326018578372895718e-04
1.484168460592627525e-03
8.579002460464835167e-04
1.078572589904069901e-03
8.900481625460088253e-04
1.038342481479048729e-03
1.103507122024893761e-03
1.063391682691872120e-03
1.127472496591508389e-03
9.395648376084864140e-04
9.414238738827407360e-04
3.150464617647230625e-04
9.374061482958495617e-04
9.451684891246259212e-04
2.696444746106863022e-03
1.687213080003857613e-03
2.868695650249719620e-03
3.467573784291744232e-03
1.861340599134564400e-03
2.040093997493386269e-03
2.464395016431808472e-03
9.007708868011832237e-04
1.135102589614689350e-03
9.595212177373468876e-04
5.522276042029261589e-04
5.746977403759956360e-04
5.815401673316955566e-04
3.167936345562338829e-03
3.110895166173577309e-03
2.585719572380185127e-03
4.285091534256935120e-03
8.931935881264507771e-04
2.356947399675846100e-03
3.034038934856653214e-03
2.980909775942564011e-03
1.664348994381725788e-03
2.549982862547039986e-03
1.490741269662976265e-03
9.713012841530144215e-04
7.615604554302990437e-04
1.025038189254701138e-03
7.091300794854760170e-04
8.428355795331299305e-04
2.911701099947094917e-03
2.710806438699364662e-03
2.513823332265019417e-03
1.195615157485008240e-03
3.700222296174615622e-04
1.250118715688586235e-03
4.617910308297723532e-04
1.304789562709629536e-03
4.519731446634978056e-04
3.049202205147594213e-04
7.884765509516000748e-04
1.435259764548391104e-04
1.380571193294599652e-04
1.993537589441984892e-04
4.039482155349105597e-04
9.725170675665140152e-04
4.301955341361463070e-04
1.081594731658697128e-03
1.046924269758164883e-03
9.985530050471425056e-04
8.080769912339746952e-04
2.078782068565487862e-03
1.295132911764085293e-03
1.669195014983415604e-03
2.948036650195717812e-03
1.333750551566481590e-03
9.489923249930143356e-04
9.776537772268056870e-04
1.211536233313381672e-03
1.973854377865791321e-03
1.489137648604810238e-03
1.528900698758661747e-03
6.181296193972229958e-04
2.713264431804418564e-03
2.372427843511104584e-03
1.340596587397158146e-03
9.789314353838562965e-04
7.780339801684021950e-04
1.349557191133499146e-03
9.713452891446650028e-04
2.845443959813565016e-04
3.083573246840387583e-04
9.303839178755879402e-04
5.250313319265842438e-03
5.111208651214838028e-03
1.738967606797814369e-03
1.224258914589881897e-03
1.676516694715246558e-04
3.877760027535259724e-04
1.859763433458283544e-04
1.380853122100234032e-03
8.301172056235373020e-04
3.964158240705728531e-04
1.516697811894118786e-03
2.781001850962638855e-03
5.268225446343421936e-03
1.890980056487023830e-03
1.876574568450450897e-02
6.243235897272825241e-03
5.816433113068342209e-04
1.080775260925292969e-02
6.264320574700832367e-03
8.527212776243686676e-03
1.141208573244512081e-03
5.038395989686250687e-03
6.826607510447502136e-03
6.416764226742088795e-04
3.418294945731759071e-03
5.904082208871841431e-03
7.411299739032983780e-03
1.531085814349353313e-03
1.350033003836870193e-02
1.093965023756027222e-02
5.960225127637386322e-03
1.126767601817846298e-02
8.862948045134544373e-03
6.015036720782518387e-03
1.765532232820987701e-02
1.343090087175369263e-02
4.047270398586988449e-03
1.817938638851046562e-03
6.303580943495035172e-03
1.068501826375722885e-02
1.961625181138515472e-03
5.648005753755569458e-03
1.224690699018537998e-03
5.218294914811849594e-03
1.507111638784408569e-02
1.063365209847688675e-02
1.783594302833080292e-02
2.365256100893020630e-02
1.725178770720958710e-02
1.990444958209991455e-02
4.969927482306957245e-03
3.740866668522357941e-03
6.040887907147407532e-03
5.121561232954263687e-03
1.205033902078866959e-02
4.766283556818962097e-03
5.558999255299568176e-03
1.490106899291276932e-02
1.857287716120481491e-03
1.596805453300476074e-02
1.266674138605594635e-02
6.849867757409811020e-03
1.929130754433572292e-03
3.716707462444901466e-03
3.323631826788187027e-03
1.205879636108875275e-02
1.222928520292043686e-02
1.179764512926340103e-02
6.311907432973384857e-03
7.696169894188642502e-03
4.253011662513017654e-03
5.014104768633842468e-03
1.035170629620552063e-02
3.164368122816085815e-02
3.438303992152214050e-02
8.336908183991909027e-03
2.408472821116447449e-02
3.050303459167480469e-02
6.384129170328378677e-03
1.124265324324369431e-02
3.182773943990468979e-03
8.476753719151020050e-04
2.167991333408281207e-04
2.108271655743010342e-05
9.056432645593304187e-06
0.000000000000000000e+00
0.000000000000000000e+00
0.000000000000000000e+00
