7.575769132017740048e-07
6.939249033166561276e-06
4.667959365178830922e-05
1.252910733455792069e-04
2.561526198405772448e-04
2.325826062588021159e-04
3.172332071699202061e-04
5.601751618087291718e-04
1.212054514326155186e-03
1.758879749104380608e-03
2.641416154801845551e-03
4.684894811362028122e-03
8.291388861835002899e-03
2.156225778162479401e-02
3.839658573269844055e-02
4.624373838305473328e-02
5.384258553385734558e-02
5.423337966203689575e-02
5.120614171028137207e-02
4.836705699563026428e-02
4.268011078238487244e-02
3.818184882402420044e-02
2.627631276845932007e-02
1.734610460698604584e-02
1.062132045626640320e-02
7.199490442872047424e-03
4.935202188789844513e-03
3.816679352894425392e-03
3.547222353518009186e-03
3.672044258564710617e-03
3.058630507439374924e-03
2.687018131837248802e-03
2.439753385260701180e-03
2.939409343525767326e-03
2.729879925027489662e-03
3.050317056477069855e-03
3.052240703254938126e-03
2.481097355484962463e-03
2.821277361363172531e-03
2.158861607313156128e-03
2.714851405471563339e-03
2.464336575940251350e-03
3.084318712353706360e-03
2.612765412777662277e-03
3.007427789270877838e-03
3.392423270270228386e-03
2.542364178225398064e-03
2.962958766147494316e-03
2.053680131211876869e-03
3.074797801673412323e-03
2.030752599239349365e-03
4.075465723872184753e-03
2.373841591179370880e-03
1.292933942750096321e-03
2.364320680499076843e-03
3.793602343648672104e-03
2.568392548710107803e-03
3.189547453075647354e-03
2.592080272734165192e-03
3.970033023506402969e-03
3.210083814337849617e-03
2.738339127972722054e-03
2.363688312470912933e-03
2.193582709878683090e-03
2.219349145889282227e-03
2.169678919017314911e-03
2.361134625971317291e-03
2.266904339194297791e-03
1.609734259545803070e-03
2.511230530217289925e-03
2.977658528834581375e-03
2.705344231799244881e-03
2.604544628411531448e-03
2.547366544604301453e-03
2.843366004526615143e-03
2.598591381683945656e-03
1.843734993599355221e-03
2.218763343989849091e-03
1.871147309429943562e-03
2.741995733231306076e-03
2.188520040363073349e-03
2.373003633692860603e-03
1.972104422748088837e-03
1.389793353155255318e-03
2.842315472662448883e-03
2.719509415328502655e-03
2.533397404477000237e-03
2.560119144618511200e-03
2.271068049594759941e-03
2.677803859114646912e-03
2.296106889843940735e-03
1.511014183051884174e-03
2.242544200271368027e-03
1.835669507272541523e-03
2.442588796839118004e-03
2.432084176689386368e-03
2.750726882368326187e-03
2.186509082093834877e-03
2.254797844216227531e-03
2.000999404117465019e-03
2.405253238976001740e-03
2.221076982095837593e-03
2.552133286371827126e-03
1.799294957891106606e-03
2.141582313925027847e-03
2.219759626314043999e-03
2.603611210361123085e-03
2.019498730078339577e-03
2.050362061709165573e-03
1.633153413422405720e-03
2.363828942179679871e-03
2.185233635827898979e-03
2.120845252647995949e-03
2.061247127130627632e-03
2.215765649452805519e-03
2.201898954808712006e-03
1.966823358088731766e-03
2.102449536323547363e-03
2.206186763942241669e-03
2.124509541317820549e-03
2.298841485753655434e-03
2.604075940325856209e-03
2.008320996537804604e-03
1.796971075236797333e-03
2.101156627759337425e-03
2.698472701013088226e-03
2.133693313226103783e-03
2.249088138341903687e-03
2.894815523177385330e-03
3.051524516195058823e-03
1.777459983713924885e-03
1.336130779236555099e-03
1.367826480418443680e-03
6.161705823615193367e-04
1.957673579454421997e-03
2.910377923399209976e-03
3.041824558749794960e-03
1.296329544857144356e-03
2.147049177438020706e-03
1.668500248342752457e-03
1.962702488526701927e-03
2.441858407109975815e-03
2.211753977462649345e-03
2.321962732821702957e-03
2.185863442718982697e-03
2.437364775687456131e-03
1.580537296831607819e-03
2.079099882394075394e-03
1.448372378945350647e-03
2.076271455734968185e-03
1.945726457051932812e-03
2.085613552480936050e-03
2.311856485903263092e-03
1.426975708454847336e-03
2.114018658176064491e-03
2.186112105846405029e-03
1.921105431392788887e-03
2.181414049118757248e-03
2.439462812617421150e-03
2.160916104912757874e-03
1.252089627087116241e-03
1.774334581568837166e-03
1.756120240315794945e-03
2.251611324027180672e-03
2.060285303741693497e-03
2.289670985192060471e-03
2.177386311814188957e-03
1.837551593780517578e-03
1.927767647430300713e-03
1.214256510138511658e-03
2.230266574770212173e-03
2.278351457789540291e-03
1.610388746485114098e-03
1.563168363645672798e-03
1.882401993498206139e-03
2.415446331724524498e-03
2.009942196309566498e-03
1.882560900412499905e-03
1.923814415931701660e-03
2.008898882195353508e-03
2.461996162310242653e-03
2.038125880062580109e-03
1.930913655087351799e-03
1.739665865898132324e-03
1.510940724983811378e-03
1.846481813117861748e-03
1.865856698714196682e-03
1.423026784323155880e-03
1.947216107510030270e-03
1.710063195787370205e-03
1.998291118070483208e-03
1.574564492329955101e-03
1.668394077569246292e-03
1.766200293786823750e-03
1.796752912923693657e-03
1.746528898365795612e-03
1.687656738795340061e-03
1.558774732984602451e-03
1.908433740027248859e-03
1.801049569621682167e-03
1.560608623549342155e-03
2.099317964166402817e-03
1.776368240825831890e-03
2.184926299378275871e-03
2.608889946714043617e-03
1.819501863792538643e-03
1.820070552639663219e-03
1.990656368434429169e-03
2.323868917301297188e-03
2.530869795009493828e-03
2.537375781685113907e-03
2.749188104644417763e-03
2.774640917778015137e-03
3.382088383659720421e-03
3.329140366986393929e-03
2.436003880575299263e-03
2.761728130280971527e-03
3.296565497294068336e-03
2.781095681712031364e-03
3.654671134427189827e-03
3.015980124473571777e-03
2.721010474488139153e-03
3.946763463318347931e-03
3.616707399487495422e-03
3.545504063367843628e-03
3.682250622659921646e-03
4.498475696891546249e-03
3.820299636572599411e-03
4.538705106824636459e-03
2.917916746810078621e-03
3.189515089616179466e-03
3.510282374918460846e-03
4.010783042758703232e-03
4.004127345979213715e-03
3.522506682202219963e-03
3.883148077875375748e-03
5.288915242999792099e-03
4.454353824257850647e-03
3.260374534875154495e-03
1.845555729232728481e-03
9.902447927743196487e-04
1.353382016532123089e-03
1.559819793328642845e-03
7.830785471014678478e-04
4.319345462135970592e-04
1.665502786636352539e-04
5.912299093324691057e-05
2.431569373584352434e-05
0.000000000000000000e+00
2.490090810169931501e-05
0.000000000000000000e+00
0.000000000000000000e+00
