1.894298833349239430e-07
7.465982889698352665e-06
4.199872273602522910e-05
1.388084201607853174e-04
1.856004673754796386e-04
2.631081151776015759e-04
3.275799681432545185e-04
5.413108738139271736e-04
1.070470432750880718e-03
1.621632371097803116e-03
2.361076185479760170e-03
4.409039393067359924e-03
7.794470991939306259e-03
2.094940468668937683e-02
3.830268234014511108e-02
4.617474600672721863e-02
5.269959941506385803e-02
5.323660746216773987e-02
5.089287087321281433e-02
4.701750352978706360e-02
4.153159633278846741e-02
3.611497953534126282e-02
2.655736170709133148e-02
1.667195372283458710e-02
1.027974300086498260e-02
6.888103671371936798e-03
4.888615105301141739e-03
3.852871013805270195e-03
3.347991267219185829e-03
3.095156047493219376e-03
2.935875905677676201e-03
2.853278303518891335e-03
2.823415445163846016e-03
2.823964692652225494e-03
2.751850057393312454e-03
2.712875604629516602e-03
2.684389008209109306e-03
2.623756881803274155e-03
2.628699876368045807e-03
2.564017195254564285e-03
2.554848091676831245e-03
2.537080086767673492e-03
2.517390530556440353e-03
2.483199350535869598e-03
2.511934144422411919e-03
2.549658762291073799e-03
2.440375043079257011e-03
2.505858661606907845e-03
2.468887716531753540e-03
2.541861729696393013e-03
2.472868422046303749e-03
2.434990135952830315e-03
2.559051848948001862e-03
2.433608518913388252e-03
2.438422758132219315e-03
2.499249065294861794e-03
2.466880949214100838e-03
2.459912095218896866e-03
2.393670612946152687e-03
2.497741952538490295e-03
2.460986375808715820e-03
2.420038916170597076e-03
2.397531177848577499e-03
2.395485993474721909e-03
2.406106097623705864e-03
2.401383128017187119e-03
2.529005054384469986e-03
2.404633210971951485e-03
2.414590446278452873e-03
2.439494244754314423e-03
2.362550469115376472e-03
2.362896921113133430e-03
2.406500279903411865e-03
2.407260704785585403e-03
2.386860549449920654e-03
2.359961392357945442e-03
2.352317096665501595e-03
2.350394148379564285e-03
2.400208497419953346e-03
2.342862542718648911e-03
2.329396316781640053e-03
2.345528220757842064e-03
2.299707848578691483e-03
2.351000905036926270e-03
2.320515457540750504e-03
2.355234464630484581e-03
2.308755647391080856e-03
2.331440802663564682e-03
2.327805152162909508e-03
2.315543591976165771e-03
2.365182153880596161e-03
2.322141313925385475e-03
2.332738367840647697e-03
2.325507113710045815e-03
2.299739047884941101e-03
2.300300868228077888e-03
2.293493365868926048e-03
2.308629453182220459e-03
2.280870452523231506e-03
2.226910321041941643e-03
2.260595094412565231e-03
2.260255394503474236e-03
2.330853138118982315e-03
2.220400609076023102e-03
2.279931213706731796e-03
2.259403700008988380e-03
2.283050911501049995e-03
2.248529577627778053e-03
2.238125074654817581e-03
2.246454590931534767e-03
2.215362852439284325e-03
2.268796321004629135e-03
2.239275723695755005e-03
2.244596369564533234e-03
2.220081863924860954e-03
2.205757424235343933e-03
2.213494386523962021e-03
2.244773320853710175e-03
2.217500004917383194e-03
2.250616205856204033e-03
2.248692791908979416e-03
2.239891095086932182e-03
2.240833826363086700e-03
2.197527559474110603e-03
2.205108059570193291e-03
2.264554612338542938e-03
2.230376703664660454e-03
2.227377844974398613e-03
2.202303148806095123e-03
2.211950719356536865e-03
2.238597255200147629e-03
2.139688236638903618e-03
2.170439343899488449e-03
2.196464687585830688e-03
2.191522857174277306e-03
2.198242116719484329e-03
2.161327283829450607e-03
2.128454390913248062e-03
2.149597508832812309e-03
2.219188958406448364e-03
2.181472256779670715e-03
2.213882748037576675e-03
2.199245383962988853e-03
2.196906134486198425e-03
2.167989965528249741e-03
2.204649848863482475e-03
2.180365612730383873e-03
2.197887515649199486e-03
2.144065452739596367e-03
2.181533491238951683e-03
2.169926883652806282e-03
2.196209738031029701e-03
2.150872489437460899e-03
2.166445367038249969e-03
2.190464641898870468e-03
2.148440340533852577e-03
2.170892665162682533e-03
2.149959094822406769e-03
2.162295859307050705e-03
2.139127347618341446e-03
2.209411701187491417e-03
2.137566450983285904e-03
2.168156672269105911e-03
2.148274565115571022e-03
2.145686652511358261e-03
2.140396507456898689e-03
2.098687225952744484e-03
2.076289383694529533e-03
2.195829292759299278e-03
2.152584027498960495e-03
2.185415010899305344e-03
2.082993974909186363e-03
2.111195586621761322e-03
2.169145271182060242e-03
2.110935980454087257e-03
2.141432603821158409e-03
2.117026597261428833e-03
2.109092660248279572e-03
2.073665615171194077e-03
2.041657688096165657e-03
2.038784325122833252e-03
2.026307396590709686e-03
2.003248548135161400e-03
1.972723985090851784e-03
1.982913119718432426e-03
1.968789845705032349e-03
1.965389121323823929e-03
1.955531770363450050e-03
1.922451891005039215e-03
1.927241333760321140e-03
1.905914628878235817e-03
1.924174721352756023e-03
1.901258947327733040e-03
1.870342646725475788e-03
1.883374876342713833e-03
1.873610424809157848e-03
1.879270421341061592e-03
1.889358623884618282e-03
1.940236194059252739e-03
1.961341360583901405e-03
2.050947165116667747e-03
2.116380026564002037e-03
2.107159933075308800e-03
2.148770960047841072e-03
2.261816989630460739e-03
2.261875197291374207e-03
2.243432914838194847e-03
2.196517540141940117e-03
2.361503429710865021e-03
2.545236842706799507e-03
2.635929035022854805e-03
2.892048098146915436e-03
3.112642560154199600e-03
3.276838921010494232e-03
3.304420737549662590e-03
2.976243151351809502e-03
3.118073102086782455e-03
3.356291912496089935e-03
3.302732249721884727e-03
3.243755549192428589e-03
3.066076431423425674e-03
2.821812871843576431e-03
3.648892976343631744e-03
3.971148282289505005e-03
3.927121404558420181e-03
3.853036323562264442e-03
3.750696312636137009e-03
3.690742189064621925e-03
3.683429909870028496e-03
3.420363878831267357e-03
3.520656609907746315e-03
3.946783952414989471e-03
4.147443920373916626e-03
4.148621112108230591e-03
4.177236929535865784e-03
4.414927214384078979e-03
4.528820980340242386e-03
4.564506001770496368e-03
3.311759559437632561e-03
2.115926938131451607e-03
1.126880175434052944e-03
1.340703573077917099e-03
1.204592990688979626e-03
8.348986157216131687e-04
3.742759581655263901e-04
1.364129711873829365e-04
3.500430102576501667e-05
1.000960946839768440e-05
5.024116035201586783e-06
2.863785312001709826e-06
5.017339503865514416e-07
2.182413822993112262e-07
