1.225219693878898397e-05
7.844372885301709175e-05
1.329388906015083194e-04
2.531654899939894676e-04
3.280260716564953327e-04
3.645298420451581478e-04
6.410073256120085716e-04
8.779700729064643383e-04
1.552143017761409283e-03
3.554025199264287949e-03
4.139926750212907791e-03
1.334211975336074829e-02
1.675373315811157227e-02
1.405776739120483398e-01
4.595321416854858398e-02
9.344095736742019653e-02
8.438820391893386841e-02
6.945063918828964233e-02
5.544201657176017761e-02
4.536329209804534912e-02
3.530853986740112305e-02
2.825571596622467041e-02
4.118321463465690613e-02
2.221321873366832733e-02
1.149993762373924255e-02
6.752376444637775421e-03
4.082810599356889725e-03
2.824457595124840736e-03
2.374647883698344231e-03
2.244168659672141075e-03
1.719571766443550587e-03
1.398643595166504383e-03
1.182283624075353146e-03
1.332449028268456459e-03
2.258384134620428085e-03
2.257326617836952209e-03
2.043287968263030052e-03
1.516321790404617786e-03
8.089310722425580025e-04
5.947190220467746258e-04
1.413131365552544594e-03
1.194196287542581558e-03
1.398137188516557217e-03
1.112553640268743038e-03
1.207388122566044331e-03
6.528536323457956314e-04
4.762157623190432787e-04
5.405810661613941193e-04
3.651997249107807875e-04
2.148946368834003806e-04
1.405290095135569572e-04
2.792726154439151287e-04
1.610965846339240670e-04
8.690301910974085331e-05
1.574086927575990558e-04
2.501940180081874132e-04
1.678137632552534342e-04
2.064780710497871041e-04
1.662680879235267639e-04
2.523517468944191933e-04
2.022161934291943908e-04
1.709657371975481510e-04
1.462745130993425846e-04
1.345621130894869566e-04
3.352439089212566614e-04
3.208407142665237188e-04
3.419526328798383474e-04
3.216727636754512787e-04
4.434464499354362488e-04
6.656773621216416359e-04
7.606091676279902458e-04
6.667971611022949219e-04
6.201872602105140686e-04
1.042557065375149250e-03
1.099610002711415291e-03
9.524921770207583904e-04
6.422807928174734116e-04
6.562707712873816490e-04
4.003115464001893997e-04
1.122212735936045647e-03
6.391006172634661198e-04
6.653092568740248680e-04
4.736067494377493858e-04
3.623283992055803537e-04
7.923193625174462795e-04
7.291443180292844772e-04
6.542667979374527931e-04
6.377171375788748264e-04
5.463378620333969593e-04
1.890300482045859098e-04
5.288136890158057213e-04
3.369503829162567854e-04
1.411495497450232506e-03
8.206011261790990829e-04
1.622614799998700619e-03
2.333044540137052536e-03
1.195465447381138802e-03
1.181935309432446957e-03
1.668618177063763142e-03
5.737367901019752026e-04
6.625945097766816616e-04
5.887633888050913811e-04
3.289202286396175623e-04
2.277155144838616252e-04
3.189241106156259775e-04
1.945019466802477837e-03
2.128821564838290215e-03
1.337753143161535263e-03
2.012755256146192551e-03
3.922066534869372845e-04
1.339681097306311131e-03
1.688362215645611286e-03
1.569489482790231705e-03
8.777091279625892639e-04
1.315972767770290375e-03
7.346557104028761387e-04
4.207803867757320404e-04
3.646398254204541445e-04
5.202913307584822178e-04
3.821936552412807941e-04
5.473940982483327389e-04
1.927094766870141029e-03
1.344447722658514977e-03
1.098218141123652458e-03
6.024543545208871365e-04
3.008556086570024490e-04
6.918127182871103287e-04
2.357823250349611044e-04
7.394478889182209969e-04
3.040230658371001482e-04
1.746113266563042998e-04
2.571312070358544588e-04
3.369630576344206929e-05
1.628763675398658961e-05
1.321800082223489881e-04
2.000147360377013683e-04
6.096820579841732979e-04
1.156959187937900424e-04
5.239383317530155182e-04
3.934871929232031107e-04
5.106365424580872059e-04
4.614924255292862654e-04
1.030499115586280823e-03
7.586939609609544277e-04
8.269022800959646702e-04
1.414626371115446091e-03
5.598511779680848122e-04
4.711105430033057928e-04
3.179341147188097239e-04
5.503782886080443859e-04
8.820076473057270050e-04
7.920259959064424038e-04
8.329002303071320057e-04
2.107526379404589534e-04
1.436669030226767063e-03
1.150093856267631054e-03
5.719570326618850231e-04
5.647857324220240116e-04
4.826875519938766956e-04
6.868964410386979580e-04
2.304345398442819715e-04
1.601206604391336441e-04
1.564666163176298141e-04
3.937509027309715748e-04
2.298337640240788460e-03
2.781472168862819672e-03
8.741524070501327515e-04
5.406318232417106628e-04
5.758748011430725455e-05
1.346661883872002363e-04
1.222236896865069866e-04
7.293614908121526241e-04
2.984031161759048700e-04
1.106109993997961283e-04
6.465864134952425957e-04
1.476199133321642876e-03
2.426080871373414993e-03
8.967987378127872944e-04
7.967039011418819427e-03
2.784758340567350388e-03
3.323133569210767746e-04
4.723600577563047409e-03
2.591154538094997406e-03
3.246639855206012726e-03
3.479830047581344843e-04
1.939321984536945820e-03
2.629866590723395348e-03
2.246171206934377551e-04
1.440998516045510769e-03
2.189886989071965218e-03
3.094470128417015076e-03
4.632890922948718071e-04
4.447029903531074524e-03
4.251564852893352509e-03
2.121516270563006401e-03
3.847716376185417175e-03
3.179933410137891769e-03
1.779339509084820747e-03
5.435031838715076447e-03
5.129212047904729843e-03
1.154897385276854038e-03
5.783160449936985970e-04
1.785446074791252613e-03
3.009669948369264603e-03
4.952813615091145039e-04
1.140355947427451611e-03
4.593473859131336212e-04
2.272331854328513145e-03
4.067551344633102417e-03
2.658890560269355774e-03
5.246279761195182800e-03
5.794935859739780426e-03
3.910770174115896225e-03
4.569809418171644211e-03
1.140869338996708393e-03
7.959564682096242905e-04
1.279439427889883518e-03
1.059220987372100353e-03
2.176841720938682556e-03
1.051619532518088818e-03
9.753768681548535824e-04
2.108950633555650711e-03
3.698959772009402514e-04
2.526380354538559914e-03
2.222111681476235390e-03
1.264880993403494358e-03
5.059600225649774075e-04
7.559086661785840988e-04
7.006636587902903557e-04
1.912822714075446129e-03
1.912272651679813862e-03
2.145307837054133415e-03
1.149992342106997967e-03
1.468442729674279690e-03
7.220209226943552494e-04
8.709552930667996407e-04
2.562962938100099564e-03
6.561410147696733475e-03
5.517350044101476669e-03
6.706852582283318043e-04
1.326767029240727425e-03
3.430977929383516312e-03
1.194966258481144905e-03
1.611445331946015358e-03
7.310016662813723087e-04
2.340067730983719230e-04
1.038086484186351299e-04
1.280872220377204940e-05
0.000000000000000000e+00
1.308155606238869950e-05
0.000000000000000000e+00
0.000000000000000000e+00
