4.906268458171325619e-08
1.583414018568873871e-06
7.967579222167842090e-06
1.904570672195404768e-05
2.782482806651387364e-05
4.041574720758944750e-05
5.855108247487805784e-05
9.383872384205460548e-05
1.619172107893973589e-04
2.438007213640958071e-04
3.650314465630799532e-04
6.640846258960664272e-04
1.160080078989267349e-03
3.066447330638766289e-03
5.570973269641399384e-03
6.778016686439514160e-03
7.894922979176044464e-03
8.279113098978996277e-03
8.249704726040363312e-03
7.957070134580135345e-03
7.508351467549800873e-03
6.953438278287649155e-03
5.932062398642301559e-03
4.811231512576341629e-03
4.035212099552154541e-03
3.577956696972250938e-03
3.262584563344717026e-03
3.100028727203607559e-03
2.996140392497181892e-03
2.932793227955698967e-03
2.881590742617845535e-03
2.863311907276511192e-03
2.850672462955117226e-03
2.845344832167029381e-03
2.842290094122290611e-03
2.851439639925956726e-03
2.847429364919662476e-03
2.808934543281793594e-03
2.780245151370763779e-03
2.772999228909611702e-03
2.762760035693645477e-03
2.761102747172117233e-03
2.741126110777258873e-03
2.731942338868975639e-03
2.704772166907787323e-03
2.685132203623652458e-03
2.692215843126177788e-03
2.711879555135965347e-03
2.691464731469750404e-03
2.706800820305943489e-03
2.660010242834687233e-03
2.673072507604956627e-03
2.660766011103987694e-03
2.690218389034271240e-03
2.671694848686456680e-03
2.690657740458846092e-03
2.672659233212471008e-03
2.682903548702597618e-03
2.682276768609881401e-03
2.677097450941801071e-03
2.684895647689700127e-03
2.652181312441825867e-03
2.630608854815363884e-03
2.638878300786018372e-03
2.650286303833127022e-03
2.655407879501581192e-03
2.674479503184556961e-03
2.680294681340456009e-03
2.672483678907155991e-03
2.688036533072590828e-03
2.681785030290484428e-03
2.653138246387243271e-03
2.669952344149351120e-03
2.664241241291165352e-03
2.657590201124548912e-03
2.648083725944161415e-03
2.657758770510554314e-03
2.654775744304060936e-03
2.625334309414029121e-03
2.638499252498149872e-03
2.644817112013697624e-03
2.627044916152954102e-03
2.643671818077564240e-03
2.649077912792563438e-03
2.623244188725948334e-03
2.636381192132830620e-03
2.626438857987523079e-03
2.619446022436022758e-03
2.626046305522322655e-03
2.648755908012390137e-03
2.606363967061042786e-03
2.623205538839101791e-03
2.624057000502943993e-03
2.603290136903524399e-03
2.632908290252089500e-03
2.620131475850939751e-03
2.596456557512283325e-03
2.609188435599207878e-03
2.613667165860533714e-03
2.617219695821404457e-03
2.568787662312388420e-03
2.595934085547924042e-03
2.637122524902224541e-03
2.641000552102923393e-03
2.608378184959292412e-03
2.646721666678786278e-03
2.620863262563943863e-03
2.666865009814500809e-03
2.680764300748705864e-03
2.641979837790131569e-03
2.663877094164490700e-03
2.698475029319524765e-03
2.717033494263887405e-03
2.716536400839686394e-03
2.724654041230678558e-03
2.686869353055953979e-03
2.723457990214228630e-03
2.746092155575752258e-03
2.695359289646148682e-03
2.754686167463660240e-03
2.760333009064197540e-03
2.752062398940324783e-03
2.768828766420483589e-03
2.774088643491268158e-03
2.773210639134049416e-03
2.787855453789234161e-03
2.774801570922136307e-03
2.746791345998644829e-03
2.758332295343279839e-03
2.719770884141325951e-03
2.788167214021086693e-03
2.783429110422730446e-03
2.791325561702251434e-03
2.802239730954170227e-03
2.795023145154118538e-03
2.808858640491962433e-03
2.813721075654029846e-03
2.764180302619934082e-03
2.812330145388841629e-03
2.797182183712720871e-03
2.811080310493707657e-03
2.812022808939218521e-03
2.822244539856910706e-03
2.814564621075987816e-03
2.821372123435139656e-03
2.829092321917414665e-03
2.847994677722454071e-03
2.857763553038239479e-03
2.850897610187530518e-03
2.856414299458265305e-03
2.855323953554034233e-03
2.857556333765387535e-03
2.866734052076935768e-03
2.873566234484314919e-03
2.867815084755420685e-03
2.876488724723458290e-03
2.883105771616101265e-03
2.883815672248601913e-03
2.885675523430109024e-03
2.887594280764460564e-03
2.888516290113329887e-03
2.891687443479895592e-03
2.896785037592053413e-03
2.889927010983228683e-03
2.897792030125856400e-03
2.913460368290543556e-03
2.919684862717986107e-03
2.923805266618728638e-03
2.944563981145620346e-03
2.910284558311104774e-03
2.919660648331046104e-03
2.922652987763285637e-03
2.928364789113402367e-03
2.924204338341951370e-03
2.929641865193843842e-03
2.940283389762043953e-03
2.946016145870089531e-03
2.955222036689519882e-03
2.969354856759309769e-03
2.991131041198968887e-03
2.989062108099460602e-03
3.006958868354558945e-03
3.019476542249321938e-03
3.034951165318489075e-03
3.042043885216116905e-03
3.049952676519751549e-03
3.065278055146336555e-03
3.071223618462681770e-03
3.070735372602939606e-03
3.084836760535836220e-03
3.104256931692361832e-03
3.113769227638840675e-03
3.165217814967036247e-03
3.143525682389736176e-03
3.230584552511572838e-03
3.283779369667172432e-03
3.360584145411849022e-03
3.438455285504460335e-03
3.759077284485101700e-03
3.504230873659253120e-03
3.884813282638788223e-03
3.986698109656572342e-03
4.137152340263128281e-03
4.702046047896146774e-03
5.481978412717580795e-03
5.308369174599647522e-03
4.039625637233257294e-03
3.730066819116473198e-03
5.249938927590847015e-03
5.934454966336488724e-03
5.760397762060165405e-03
6.902732886373996735e-03
7.934614084661006927e-03
8.851479738950729370e-03
8.339865133166313171e-03
6.959826219826936722e-03
7.814652286469936371e-03
9.647411294281482697e-03
1.021591853350400925e-02
1.058963406831026077e-02
1.100515015423297882e-02
1.160230301320552826e-02
1.267294399440288544e-02
1.375652104616165161e-02
1.357159949839115143e-02
1.295172702521085739e-02
1.228469889611005783e-02
1.226942893117666245e-02
1.295395195484161377e-02
1.175329461693763733e-02
1.249724999070167542e-02
1.321145612746477127e-02
1.447482127696275711e-02
1.363675855100154877e-02
1.371668651700019836e-02
1.459992583841085434e-02
1.460271049290895462e-02
1.448773313313722610e-02
1.369668822735548019e-02
1.554010529071092606e-02
1.267133373767137527e-02
8.819878101348876953e-03
6.035462487488985062e-03
3.787335008382797241e-03
1.462072250433266163e-03
4.820157482754439116e-04
1.117966166930273175e-04
2.471332300046924502e-05
1.276552120543783531e-05
6.798999038437614217e-06
2.463068085489794612e-06
5.814089831801538821e-07
