1.509627196583096520e-07
7.433886366925435141e-06
4.114434341317974031e-05
1.406983064953237772e-04
1.841429184423759580e-04
2.660181489773094654e-04
3.308613086119294167e-04
5.463570705614984035e-04
1.082335133105516434e-03
1.629890175536274910e-03
2.372103510424494743e-03
4.438044037669897079e-03
7.877425290644168854e-03
2.115601673722267151e-02
3.876485675573348999e-02
4.690194129943847656e-02
5.348837003111839294e-02
5.405944213271141052e-02
5.157865956425666809e-02
4.779700934886932373e-02
4.231914132833480835e-02
3.675199300050735474e-02
2.698488906025886536e-02
1.697291806340217590e-02
1.048932969570159912e-02
7.063962053507566452e-03
5.006739404052495956e-03
3.938410431146621704e-03
3.462247783318161964e-03
3.194821765646338463e-03
3.069726983085274696e-03
2.969492692500352859e-03
2.895882586017251015e-03
2.905821660533547401e-03
2.852607285603880882e-03
2.799661131575703621e-03
2.762961201369762421e-03
2.730516251176595688e-03
2.676962176337838173e-03
2.709642052650451660e-03
2.641352126374840736e-03
2.641308819875121117e-03
2.603232394903898239e-03
2.605894347652792931e-03
2.587612718343734741e-03
2.559411106631159782e-03
2.538354834541678429e-03
2.575990511104464531e-03
2.521507209166884422e-03
2.532086335122585297e-03
2.448167884722352028e-03
2.495250431820750237e-03
2.518599154427647591e-03
2.493684878572821617e-03
2.524799201637506485e-03
2.550652017816901207e-03
2.548538381233811378e-03
2.528460463508963585e-03
2.474970649927854538e-03
2.507204888388514519e-03
2.514099469408392906e-03
2.452069194987416267e-03
2.527083270251750946e-03
2.461225027218461037e-03
2.474070992320775986e-03
2.468995517119765282e-03
2.448978368192911148e-03
2.507401164621114731e-03
2.458093455061316490e-03
2.489999635145068169e-03
2.484533004462718964e-03
2.428303007036447525e-03
2.440611599013209343e-03
2.437488641589879990e-03
2.433506306260824203e-03
2.401407342404127121e-03
2.426118822768330574e-03
2.383430721238255501e-03
2.377999015152454376e-03
2.402433427050709724e-03
2.396666910499334335e-03
2.413196489214897156e-03
2.376152668148279190e-03
2.391341608017683029e-03
2.317901467904448509e-03
2.339019905775785446e-03
2.347101224586367607e-03
2.362875966355204582e-03
2.378537319600582123e-03
2.330625429749488831e-03
2.364194719120860100e-03
2.357006072998046875e-03
2.347526373341679573e-03
2.338775899261236191e-03
2.325415145605802536e-03
2.300718566402792931e-03
2.305503934621810913e-03
2.269726246595382690e-03
2.278088359162211418e-03
2.243401249870657921e-03
2.271959325298666954e-03
2.271366538479924202e-03
2.285836497321724892e-03
2.264416078105568886e-03
2.259553875774145126e-03
2.265560673549771309e-03
2.254943363368511200e-03
2.250672550871968269e-03
2.240623114630579948e-03
2.224930096417665482e-03
2.246269257739186287e-03
2.219566609710454941e-03
2.212532795965671539e-03
2.239305526018142700e-03
2.222601557150483131e-03
2.200152724981307983e-03
2.201096387580037117e-03
2.204772783443331718e-03
2.200877759605646133e-03
2.195935929194092751e-03
2.190324477851390839e-03
2.187961246818304062e-03
2.175141824409365654e-03
2.186190802603960037e-03
2.212094608694314957e-03
2.115838695317506790e-03
2.198054222390055656e-03
2.180762588977813721e-03
2.162472344934940338e-03
2.172636101022362709e-03
2.219815738499164581e-03
2.188342856243252754e-03
2.093795454129576683e-03
2.141039818525314331e-03
2.212500199675559998e-03
2.101229270920157433e-03
2.118504140526056290e-03
2.224761294201016426e-03
2.181163756176829338e-03
2.169170649722218513e-03
2.135485177859663963e-03
2.156924456357955933e-03
2.160937990993261337e-03
2.125433413311839104e-03
2.119544195011258125e-03
2.149763982743024826e-03
2.102860948070883751e-03
2.098787808790802956e-03
2.139701973646879196e-03
2.122513949871063232e-03
2.141161588951945305e-03
2.124956110492348671e-03
2.133913803845643997e-03
2.143873833119869232e-03
2.109738998115062714e-03
2.093281596899032593e-03
2.097554970532655716e-03
2.097699558362364769e-03
2.076513599604368210e-03
2.069125883281230927e-03
2.053440082818269730e-03
2.047812798991799355e-03
2.034949371591210365e-03
2.077517332509160042e-03
2.081394661217927933e-03
2.043803222477436066e-03
2.046953886747360229e-03
2.051444724202156067e-03
1.953433267772197723e-03
2.031362382695078850e-03
2.065273467451334000e-03
2.061973558738827705e-03
2.063551684841513634e-03
2.048563910648226738e-03
2.032323740422725677e-03
2.041998784989118576e-03
2.023067092522978783e-03
2.019937150180339813e-03
1.984806265681982040e-03
1.953541068360209465e-03
1.918401452712714672e-03
1.927689183503389359e-03
1.917150220833718777e-03
1.877050264738500118e-03
1.868592458777129650e-03
1.870780833996832371e-03
1.850419910624623299e-03
1.819553202949464321e-03
1.846382161602377892e-03
1.825284329243004322e-03
1.813309965655207634e-03
1.780915888957679272e-03
1.807072549127042294e-03
1.768278889358043671e-03
1.771315233781933784e-03
1.765771885402500629e-03
1.775303389877080917e-03
1.791079994291067123e-03
1.836250768974423409e-03
1.846134546212852001e-03
1.914233202114701271e-03
1.960191642865538597e-03
1.972482306882739067e-03
2.033178228884935379e-03
2.101020654663443565e-03
2.139971125870943069e-03
2.058316254988312721e-03
2.034647390246391296e-03
2.232206286862492561e-03
2.390634501352906227e-03
2.483111340552568436e-03
2.743054646998643875e-03
2.967118285596370697e-03
3.114731516689062119e-03
3.142030211165547371e-03
2.773795742541551590e-03
2.957483055070042610e-03
3.200856735929846764e-03
3.190837102010846138e-03
3.108147066086530685e-03
2.968968823552131653e-03
2.723983256146311760e-03
3.519140183925628662e-03
3.836946561932563782e-03
3.767576068639755249e-03
3.700396744534373283e-03
3.619041061028838158e-03
3.591401269659399986e-03
3.558302763849496841e-03
3.312073880806565285e-03
3.423771355301141739e-03
3.835365874692797661e-03
4.111623391509056091e-03
4.021923989057540894e-03
4.063905682414770126e-03
4.325754009187221527e-03
4.461008589714765549e-03
4.531382117420434952e-03
3.251339774578809738e-03
1.949493773281574249e-03
1.024012919515371323e-03
1.320042763836681843e-03
1.231104019097983837e-03
8.588637574575841427e-04
3.996119485236704350e-04
1.427431852789595723e-04
3.650212238426320255e-05
8.916030310501810163e-06
5.203694854571949691e-06
2.360213102292618714e-06
1.011901417768967804e-06
4.048769994824397145e-07
