6.611337539652595297e-06
1.322997413808479905e-04
2.092492941301316023e-04
2.455142966937273741e-04
2.767772821243852377e-04
4.372884868644177914e-04
9.252688614651560783e-04
1.195304561406373978e-03
1.572760287672281265e-03
3.660087240859866142e-03
4.594595637172460556e-03
1.510350126773118973e-02
1.882479712367057800e-02
1.598354429006576538e-01
5.404433980584144592e-02
1.088242530822753906e-01
9.589108824729919434e-02
7.870605587959289551e-02
6.493703275918960571e-02
5.067542940378189087e-02
3.826507925987243652e-02
3.011677414178848267e-02
4.555815830826759338e-02
2.241871319711208344e-02
1.133242901414632797e-02
6.272326689213514328e-03
3.485458670184016228e-03
2.498405985534191132e-03
1.660693786107003689e-03
1.419911393895745277e-03
1.177650061435997486e-03
9.552990086376667023e-04
1.034746761433780193e-03
7.237886893562972546e-04
1.405873452313244343e-03
1.064155250787734985e-03
1.314172404818236828e-03
1.041937619447708130e-03
6.361047271639108658e-04
4.414687864482402802e-04
1.399365253746509552e-03
8.821662049740552902e-04
6.816608365625143051e-04
6.300958339124917984e-04
8.352538570761680603e-04
2.024582499871030450e-04
3.597488976083695889e-04
3.029666549991816282e-04
1.740946900099515915e-04
6.797818787163123488e-05
2.003405534196645021e-04
2.290780248586088419e-04
1.212389324791729450e-04
6.074260818422771990e-05
9.850042260950431228e-05
2.100554847856983542e-04
1.156171711045317352e-04
2.035700745182111859e-04
9.513716213405132294e-05
2.420587552478536963e-04
2.003320842050015926e-04
7.482856017304584384e-05
1.602140546310693026e-04
1.048530466505326331e-04
1.984150003409013152e-04
1.496048498665913939e-04
3.220094076823443174e-04
1.968327269423753023e-04
5.354140303097665310e-04
3.558002645149827003e-04
4.665929591283202171e-04
3.572186396922916174e-04
2.253493439638987184e-04
5.197750288061797619e-04
4.953958559781312943e-04
3.994788567069917917e-04
6.857201224192976952e-04
4.067144473083317280e-04
2.801009686663746834e-04
6.845757598057389259e-04
3.540352918207645416e-04
2.211233659181743860e-04
3.311234759166836739e-04
4.618884995579719543e-04
5.647001671604812145e-04
5.628588842228055000e-04
4.480535571929067373e-04
4.051637370139360428e-04
2.970886998809874058e-04
1.317299320362508297e-04
2.724576042965054512e-04
4.036497557535767555e-04
1.187558053061366081e-03
9.326434228569269180e-04
1.394199440255761147e-03
1.656422624364495277e-03
8.982761064544320107e-04
7.832932751625776291e-04
1.532591413706541061e-03
4.109315050300210714e-04
3.810850030276924372e-04
3.267647116445004940e-04
2.057019009953364730e-04
2.516809036023914814e-04
2.691908739507198334e-04
1.442995388060808182e-03
1.233128365129232407e-03
9.435638785362243652e-04
1.637044595554471016e-03
3.715226484928280115e-04
7.512005395255982876e-04
1.164836459793150425e-03
9.086221107281744480e-04
6.475619738921523094e-04
8.848127909004688263e-04
6.362977437674999237e-04
2.449463936500251293e-04
3.667645505629479885e-04
3.421145956963300705e-04
1.747963542584329844e-04
5.603724275715649128e-04
1.161478925496339798e-03
1.140819978900253773e-03
7.279421552084386349e-04
4.838773456867784262e-04
1.174913995782844722e-04
5.303752841427922249e-04
9.848865011008456349e-05
4.315084952395409346e-04
1.992772304220125079e-04
1.292486849706619978e-04
2.605138288345187902e-04
7.491708856832701713e-06
1.796651122276671231e-05
4.811554390471428633e-05
6.062535248929634690e-05
3.399521810933947563e-04
8.328851254191249609e-05
5.190686788409948349e-04
4.576776118483394384e-04
2.960818819701671600e-04
1.986358547583222389e-04
6.262155366130173206e-04
3.550421097315847874e-04
4.537247586995363235e-04
6.653907475993037224e-04
7.912799483165144920e-04
3.879353753291070461e-04
2.689478860702365637e-04
2.851086901500821114e-04
6.326623260974884033e-04
6.708157015964388847e-04
8.049976895563304424e-04
2.369658177485689521e-04
8.107852190732955933e-04
8.623078465461730957e-04
4.749817599076777697e-04
4.363212210591882467e-04
2.742998185567557812e-04
5.338317714631557465e-04
2.789830323308706284e-04
1.831753033911809325e-04
6.930004019523039460e-05
2.646677603479474783e-04
1.681979163549840450e-03
1.728321658447384834e-03
7.400963804684579372e-04
3.479477891232818365e-04
3.781125997193157673e-05
1.165566427516750991e-04
2.295272679475601763e-05
4.040608473587781191e-04
3.530407266225665808e-04
1.153167249867692590e-04
5.023135454393923283e-04
9.578843018971383572e-04
1.652457634918391705e-03
5.718580214306712151e-04
6.040967535227537155e-03
2.505144570022821426e-03
2.223938936367630959e-04
2.852730220183730125e-03
1.466607092879712582e-03
2.109332708641886711e-03
3.064127813559025526e-04
1.709824195131659508e-03
1.898839254863560200e-03
2.807673299685120583e-04
9.753364138305187225e-04
1.847971230745315552e-03
2.022251486778259277e-03
4.960598307661712170e-04
3.268796019256114960e-03
3.171882359310984612e-03
1.679290202446281910e-03
3.725247690454125404e-03
2.879525069147348404e-03
1.713454956188797951e-03
4.619233775883913040e-03
3.442671382799744606e-03
9.781382977962493896e-04
3.144023066852241755e-04
1.832661917433142662e-03
2.094786148518323898e-03
3.203202504664659500e-04
8.974332013167440891e-04
2.803218667395412922e-04
1.638104207813739777e-03
2.773169660940766335e-03
1.587838865816593170e-03
3.485858673229813576e-03
3.994002472609281540e-03
2.881912747398018837e-03
2.427825471386313438e-03
3.996145096607506275e-04
2.918620302807539701e-04
6.660124054178595543e-04
5.972308572381734848e-04
1.445434754714369774e-03
8.359460625797510147e-04
8.637582068331539631e-04
1.285484409891068935e-03
1.380538305966183543e-04
2.101600402966141701e-03
1.607979880645871162e-03
7.896553142927587032e-04
1.565767161082476377e-04
2.262059424538165331e-04
1.907796249724924564e-04
1.123612746596336365e-03
9.199428604915738106e-04
6.957175792194902897e-04
4.907856346108019352e-04
6.025097682140767574e-04
3.887232160195708275e-04
2.243185153929516673e-04
5.778386257588863373e-04
2.185620833188295364e-03
1.161389402113854885e-03
3.284604754298925400e-04
1.047555590048432350e-03
1.111967023462057114e-03
2.992841182276606560e-04
1.078461646102368832e-03
6.072188843972980976e-04
6.162368663353845477e-05
0.000000000000000000e+00
0.000000000000000000e+00
0.000000000000000000e+00
0.000000000000000000e+00
0.000000000000000000e+00
0.000000000000000000e+00
