0.000000000000000000e+00
3.218127176296547987e-06
1.142965720646316186e-05
3.988032040069811046e-05
5.630035593640059233e-05
5.936651723459362984e-05
8.369960414711385965e-05
1.405257644364610314e-04
3.190369170624762774e-04
4.296818515285849571e-04
6.185940001159906387e-04
1.212735311128199100e-03
2.267220756039023399e-03
5.630405154079198837e-03
1.044237334281206131e-02
1.318716816604137421e-02
1.536400895565748215e-02
1.623054221272468567e-02
1.558159478008747101e-02
1.526858750730752945e-02
1.373389642685651779e-02
1.264264620840549469e-02
9.827272035181522369e-03
7.562537211924791336e-03
6.052512675523757935e-03
4.853705875575542450e-03
4.553028382360935211e-03
3.913886845111846924e-03
3.846152685582637787e-03
3.244429128244519234e-03
3.355630440637469292e-03
3.320560557767748833e-03
3.285781480371952057e-03
3.293727524578571320e-03
3.075599670410156250e-03
3.175095422193408012e-03
2.912291092798113823e-03
3.056898945942521095e-03
3.300942713394761086e-03
2.746149897575378418e-03
2.931823488324880600e-03
2.952491166070103645e-03
3.187117632478475571e-03
2.851222408935427666e-03
3.300270996987819672e-03
3.384571289643645287e-03
3.949154634028673172e-03
2.609253628179430962e-03
2.339808037504553795e-03
2.851034048944711685e-03
2.844766946509480476e-03
2.521653892472386360e-03
2.628595102578401566e-03
2.517027314752340317e-03
2.403255319222807884e-03
4.312674980610609055e-03
3.416588529944419861e-03
2.234952989965677261e-03
3.436585422605276108e-03
2.949270186945796013e-03
3.214200958609580994e-03
3.433834062889218330e-03
3.164311638101935387e-03
2.908150665462017059e-03
3.107299096882343292e-03
2.668828004971146584e-03
2.714480506256222725e-03
2.584223868325352669e-03
3.247421933338046074e-03
2.682982711121439934e-03
2.917096018791198730e-03
2.626244444400072098e-03
2.623423002660274506e-03
3.038408467546105385e-03
2.706738654524087906e-03
2.865862101316452026e-03
3.033400978893041611e-03
2.729399828240275383e-03
2.760448493063449860e-03
2.876950427889823914e-03
2.752212574705481529e-03
2.799720736220479012e-03
2.984651364386081696e-03
2.976749325171113014e-03
2.075638622045516968e-03
2.428078558295965195e-03
2.826497657224535942e-03
2.999309217557311058e-03
3.519899444654583931e-03
2.511182334274053574e-03
2.602663822472095490e-03
2.685114042833447456e-03
2.646842971444129944e-03
2.688866807147860527e-03
2.728128805756568909e-03
2.887346083298325539e-03
2.822171663865447044e-03
2.604825654998421669e-03
2.810832578688859940e-03
2.588572213426232338e-03
2.876699669286608696e-03
2.945930464193224907e-03
2.380744321271777153e-03
2.599562518298625946e-03
3.252533031627535820e-03
2.763026161119341850e-03
2.767040859907865524e-03
2.823796356096863747e-03
2.733779139816761017e-03
2.573235891759395599e-03
2.643487649038434029e-03
2.651986666023731232e-03
2.867504488676786423e-03
3.228155663236975670e-03
2.762614283710718155e-03
2.759196097031235695e-03
3.012787550687789917e-03
3.211116185411810875e-03
2.634951844811439514e-03
2.807881683111190796e-03
2.816619817167520523e-03
3.025276120752096176e-03
3.045705147087574005e-03
3.109812270849943161e-03
2.566525712609291077e-03
2.256153617054224014e-03
3.084297757595777512e-03
2.826190320774912834e-03
2.549407072365283966e-03
2.908464521169662476e-03
2.862411784008145332e-03
2.023118548095226288e-03
1.911060069687664509e-03
2.395818475633859634e-03
3.420621156692504883e-03
2.927201334387063980e-03
3.219611244276165962e-03
2.708267187699675560e-03
2.813457511365413666e-03
2.614571480080485344e-03
3.458719467744231224e-03
3.022994613274931908e-03
3.016777569428086281e-03
3.250025678426027298e-03
3.081606468185782433e-03
2.927495166659355164e-03
2.944078994914889336e-03
2.927263732999563217e-03
3.292074194177985191e-03
2.976797055453062057e-03
3.057506866753101349e-03
2.914165845140814781e-03
3.177669830620288849e-03
3.081973642110824585e-03
2.779402071610093117e-03
3.077927278354763985e-03
3.415430197492241859e-03
2.337544690817594528e-03
3.101815702393651009e-03
2.736501861363649368e-03
2.341842278838157654e-03
2.747848629951477051e-03
2.489736536517739296e-03
2.768579637631773949e-03
2.879021922126412392e-03
2.828078810125589371e-03
2.674126531928777695e-03
3.292502136901021004e-03
3.036431502550840378e-03
3.402983071282505989e-03
2.360404934734106064e-03
3.054047934710979462e-03
2.964932471513748169e-03
2.412096364423632622e-03
3.241564147174358368e-03
2.709781285375356674e-03
3.148435382172465324e-03
3.415135666728019714e-03
2.969861961901187897e-03
3.326308680698275566e-03
3.283537225797772408e-03
3.032050561159849167e-03
3.039941424503922462e-03
3.157072933390736580e-03
2.972084330394864082e-03
3.172327298671007156e-03
3.472261130809783936e-03
3.217271529138088226e-03
3.298348980024456978e-03
3.134354250505566597e-03
3.163154935464262962e-03
3.201659535989165306e-03
3.211017465218901634e-03
3.408599644899368286e-03
3.573603695258498192e-03
3.522699000313878059e-03
3.657879307866096497e-03
3.475531237199902534e-03
3.714469959959387779e-03
3.717685351148247719e-03
3.846564330160617828e-03
4.081539344042539597e-03
4.271090030670166016e-03
4.411869216710329056e-03
4.489570856094360352e-03
4.390537738800048828e-03
4.389612004160881042e-03
4.451152402907609940e-03
5.205844528973102570e-03
5.530395079404115677e-03
5.987400189042091370e-03
6.579654291272163391e-03
7.385068573057651520e-03
7.830654270946979523e-03
7.986003533005714417e-03
8.051630109548568726e-03
8.127263747155666351e-03
8.717944845557212830e-03
8.654920384287834167e-03
9.531486779451370239e-03
8.260428905487060547e-03
7.424877956509590149e-03
1.061561889946460724e-02
9.683948010206222534e-03
9.989018552005290985e-03
9.600752033293247223e-03
9.748442098498344421e-03
9.790561161935329437e-03
8.320752531290054321e-03
8.652129210531711578e-03
8.527504280209541321e-03
9.500348940491676331e-03
1.063317432999610901e-02
1.095325127243995667e-02
1.029455196112394333e-02
9.422477334737777710e-03
1.027401909232139587e-02
1.077969931066036224e-02
9.092587046325206757e-03
8.878177963197231293e-03
6.295739673078060150e-03
4.681380931288003922e-03
3.488812828436493874e-03
2.219634596258401871e-03
9.130525286309421062e-04
3.285098355263471603e-04
6.129229586804285645e-05
2.667845546966418624e-05
0.000000000000000000e+00
1.041568975779227912e-05
0.000000000000000000e+00
0.000000000000000000e+00
