7.154936554343294119e-08
2.429641199341858737e-06
1.233205421158345416e-05
2.422936995571944863e-05
3.801559432758949697e-05
5.673454143106937408e-05
9.183449583360925317e-05
1.487113186158239841e-04
2.234201674582436681e-04
3.452626988291740417e-04
5.408020224422216415e-04
9.628214756958186626e-04
1.700308406725525856e-03
4.410031717270612717e-03
7.961065508425235748e-03
9.543810039758682251e-03
1.089750789105892181e-02
1.126261055469512939e-02
1.101167034357786179e-02
1.039808988571166992e-02
9.577364660799503326e-03
8.661342784762382507e-03
7.158129941672086716e-03
5.478072445839643478e-03
4.372794646769762039e-03
3.734177676960825920e-03
3.347504185512661934e-03
3.133119083940982819e-03
3.012045053765177727e-03
2.934427466243505478e-03
2.884712303057312965e-03
2.857201965525746346e-03
2.837541047483682632e-03
2.822359325364232063e-03
2.812759019434452057e-03
2.805372234433889389e-03
2.799329347908496857e-03
2.762757008895277977e-03
2.751346677541732788e-03
2.742732875049114227e-03
2.730718581005930901e-03
2.731273649260401726e-03
2.715212292969226837e-03
2.702157245948910713e-03
2.680047415196895599e-03
2.671928610652685165e-03
2.680906094610691071e-03
2.675000345334410667e-03
2.673407318070530891e-03
2.663149032741785049e-03
2.661367412656545639e-03
2.666501095518469810e-03
2.667114604264497757e-03
2.659074729308485985e-03
2.657451201230287552e-03
2.648429013788700104e-03
2.667139517143368721e-03
2.673385897651314735e-03
2.671173540875315666e-03
2.662522951140999794e-03
2.683655126020312309e-03
2.650456735864281654e-03
2.637441037222743034e-03
2.644812455400824547e-03
2.643652027472853661e-03
2.656504046171903610e-03
2.654996700584888458e-03
2.663449617102742195e-03
2.673759823665022850e-03
2.662555780261754990e-03
2.665312495082616806e-03
2.642437582835555077e-03
2.657373202964663506e-03
2.654853276908397675e-03
2.649445552378892899e-03
2.642645500600337982e-03
2.646966371685266495e-03
2.650588750839233398e-03
2.631863113492727280e-03
2.634159056469798088e-03
2.642700448632240295e-03
2.629789290949702263e-03
2.640683669596910477e-03
2.641464583575725555e-03
2.634593285620212555e-03
2.636924618855118752e-03
2.630583476275205612e-03
2.625429071485996246e-03
2.631488954648375511e-03
2.638843143358826637e-03
2.620749874040484428e-03
2.627130597829818726e-03
2.629745984449982643e-03
2.622673753648996353e-03
2.639946993440389633e-03
2.633145079016685486e-03
2.623018575832247734e-03
2.624688670039176941e-03
2.634162316098809242e-03
2.636985620483756065e-03
2.609184011816978455e-03
2.623616717755794525e-03
2.649422502145171165e-03
2.651928924024105072e-03
2.647429704666137695e-03
2.661091042682528496e-03
2.647721208631992340e-03
2.680372446775436401e-03
2.687005558982491493e-03
2.663885243237018585e-03
2.680821111425757408e-03
2.705478342249989510e-03
2.716362243518233299e-03
2.714662346988916397e-03
2.728524385020136833e-03
2.696299925446510315e-03
2.735996386036276817e-03
2.742492826655507088e-03
2.708031097427010536e-03
2.760774921625852585e-03
2.750454237684607506e-03
2.744463738054037094e-03
2.763630822300910950e-03
2.767381491139531136e-03
2.765163546428084373e-03
2.766820834949612617e-03
2.767656231299042702e-03
2.761223819106817245e-03
2.762625459581613541e-03
2.731676911935210228e-03
2.789026824757456779e-03
2.785446820780634880e-03
2.782202558591961861e-03
2.781460992991924286e-03
2.803959185257554054e-03
2.793803578242659569e-03
2.795203123241662979e-03
2.759611234068870544e-03
2.797367749735713005e-03
2.784147625789046288e-03
2.797082765027880669e-03
2.801040420308709145e-03
2.801928203552961349e-03
2.807722426950931549e-03
2.808733610436320305e-03
2.806210191920399666e-03
2.825553528964519501e-03
2.831636695191264153e-03
2.829425502568483353e-03
2.828993834555149078e-03
2.831580815836787224e-03
2.834850456565618515e-03
2.843335736542940140e-03
2.835417399182915688e-03
2.845718525350093842e-03
2.849828219041228294e-03
2.853122539818286896e-03
2.850823104381561279e-03
2.851196099072694778e-03
2.854917896911501884e-03
2.857572399079799652e-03
2.865062328055500984e-03
2.862613415345549583e-03
2.859102096408605576e-03
2.868404844775795937e-03
2.873842604458332062e-03
2.875084755942225456e-03
2.884736051782965660e-03
2.898144535720348358e-03
2.877415157854557037e-03
2.889995928853750229e-03
2.887091832235455513e-03
2.898760139942169189e-03
2.884211251512169838e-03
2.887507202103734016e-03
2.892891410738229752e-03
2.898510778322815895e-03
2.906225854530930519e-03
2.916793571785092354e-03
2.934926422312855721e-03
2.942271763458848000e-03
2.946556545794010162e-03
2.958099124953150749e-03
2.963999053463339806e-03
2.974841743707656860e-03
2.976023824885487556e-03
2.988330088555812836e-03
3.002217505127191544e-03
2.995858201757073402e-03
3.005267120897769928e-03
3.020870732143521309e-03
3.029417479410767555e-03
3.066143952310085297e-03
3.065930213779211044e-03
3.127563744783401489e-03
3.173684468492865562e-03
3.246191190555691719e-03
3.311863169074058533e-03
3.544600680470466614e-03
3.434783080592751503e-03
3.757198341190814972e-03
3.845750587061047554e-03
3.969262819737195969e-03
4.384574480354785919e-03
4.918069578707218170e-03
4.826051648706197739e-03
3.984846640378236771e-03
3.834425006061792374e-03
4.975322633981704712e-03
5.515515804290771484e-03
5.550104659050703049e-03
6.583655253052711487e-03
7.567574270069599152e-03
8.324407972395420074e-03
7.827196270227432251e-03
6.507840938866138458e-03
7.359451148658990860e-03
9.065015241503715515e-03
9.675090201199054718e-03
1.006202027201652527e-02
1.043077558279037476e-02
1.098139956593513489e-02
1.194569095969200134e-02
1.289867982268333435e-02
1.292634382843971252e-02
1.239269506186246872e-02
1.176140736788511276e-02
1.167863048613071442e-02
1.219613756984472275e-02
1.100843772292137146e-02
1.166188716888427734e-02
1.254360657185316086e-02
1.377460919320583344e-02
1.291169319301843643e-02
1.284965779632329941e-02
1.384128443896770477e-02
1.390182040631771088e-02
1.377926953136920929e-02
1.310415565967559814e-02
1.492900121957063675e-02
1.223728992044925690e-02
8.509888313710689545e-03
5.848997272551059723e-03
3.684914205223321915e-03
1.427392591722309589e-03
4.711698275059461594e-04
1.102903115679509938e-04
2.347353438381105661e-05
1.314717246714280918e-05
6.607340310438303277e-06
2.350482191104674712e-06
5.033035108681360725e-07
