1.098457414627773687e-05
1.223915023729205132e-04
1.537113712402060628e-04
2.671701076906174421e-04
3.125249058939516544e-04
3.960606991313397884e-04
1.101286849007010460e-03
1.394424238242208958e-03
1.622677082195878029e-03
3.893527667969465256e-03
4.238663706928491592e-03
1.565836928784847260e-02
1.881364919245243073e-02
1.588113456964492798e-01
5.433242395520210266e-02
1.092968732118606567e-01
9.691947698593139648e-02
7.507107406854629517e-02
6.436181813478469849e-02
5.089732259511947632e-02
3.768654540181159973e-02
3.086323849856853485e-02
4.888087883591651917e-02
2.564571052789688110e-02
1.101241540163755417e-02
7.260330952703952789e-03
4.204568918794393539e-03
2.475903136655688286e-03
1.836999668739736080e-03
1.389617216773331165e-03
1.483892556279897690e-03
8.191313827410340309e-04
1.662399503402411938e-03
9.835500968620181084e-04
1.980553613975644112e-03
1.594694796949625015e-03
1.733246259391307831e-03
1.063487259671092033e-03
2.446326252538710833e-04
9.319423115812242031e-04
9.337165975011885166e-04
8.398695499636232853e-04
1.653832849115133286e-03
9.818446123972535133e-04
6.118387100286781788e-04
7.343043107539415359e-04
4.842206253670156002e-04
6.493240944109857082e-04
1.371070684399455786e-04
2.068283647531643510e-04
1.641873823245987296e-04
2.399022050667554140e-04
1.803373888833448291e-04
9.561431215843185782e-05
1.998843799810856581e-04
3.011584522027987987e-05
0.000000000000000000e+00
9.756776125868782401e-05
1.648533361731097102e-04
1.235270465258508921e-04
1.540812372695654631e-04
5.744455847889184952e-05
1.346615172224119306e-04
1.480833307141438127e-04
1.264239253941923380e-04
1.798465382307767868e-04
7.955918554216623306e-04
3.218028286937624216e-04
5.388783756643533707e-04
8.895764476619660854e-04
2.877941587939858437e-04
5.582377780228853226e-04
3.620239149313420057e-04
5.892981425859034061e-04
8.991717477329075336e-04
8.657742873765528202e-04
7.903502555564045906e-04
3.577843599487096071e-04
3.767075540963560343e-04
8.465509163215756416e-04
2.923479478340595961e-04
3.816943499259650707e-04
5.612313980236649513e-04
4.225532466080039740e-04
2.627038920763880014e-04
5.382905947044491768e-04
1.207705645356327295e-04
1.972643512999638915e-04
6.076413556002080441e-04
2.750630119408015162e-05
5.254828138276934624e-04
2.702856727410107851e-04
1.084001967683434486e-03
1.041229697875678539e-03
1.102087320759892464e-03
1.730823307298123837e-03
1.297341310419142246e-03
1.005385653115808964e-03
1.204669824801385403e-03
8.078805985860526562e-04
4.443309444468468428e-04
3.137536114081740379e-04
1.415151491528376937e-04
7.659321272512897849e-05
8.026765135582536459e-05
1.699948916211724281e-03
1.572559005580842495e-03
1.100708497688174248e-03
1.385254203341901302e-03
4.695088136941194534e-04
6.353188073262572289e-04
8.878897060640156269e-04
7.653334760107100010e-04
8.709346293471753597e-04
5.253030103631317616e-04
8.456739014945924282e-04
5.629525403492152691e-04
2.240429457742720842e-04
6.321985856629908085e-04
2.529507037252187729e-04
4.553769540507346392e-04
1.102798501960933208e-03
1.403980422765016556e-03
7.973645115271210670e-04
4.837829037569463253e-04
1.022458091028966010e-04
5.115260137245059013e-04
5.962670911685563624e-05
2.311714197276160121e-04
2.028920716838911176e-04
6.479467992903664708e-05
2.735278685577213764e-04
1.327041536569595337e-04
1.019343981170095503e-04
1.390839752275496721e-04
4.550799349090084434e-05
2.640545426402240992e-04
3.968063538195565343e-05
1.804296334739774466e-04
3.693665203172713518e-04
4.620067193172872066e-04
3.149698313791304827e-04
7.256313692778348923e-04
7.028296822682023048e-04
8.244855562224984169e-04
1.195393502712249756e-03
6.930671515874564648e-04
9.929640509653836489e-05
3.541497571859508753e-04
3.967766533605754375e-04
3.326987207401543856e-04
2.470728650223463774e-04
4.164768324699252844e-04
1.748456706991419196e-04
6.993983406573534012e-04
3.957824665121734142e-04
3.204365493729710579e-04
5.695713916793465614e-04
4.554910701699554920e-04
4.731668159365653992e-04
3.515532007440924644e-04
2.382529783062636852e-04
1.660382840782403946e-04
3.293908957857638597e-04
2.222905401140451431e-03
1.464181463234126568e-03
4.347075591795146465e-04
6.330989999696612358e-04
0.000000000000000000e+00
1.118811051128432155e-04
1.555647759232670069e-04
2.012006298173218966e-04
2.478826208971440792e-04
1.556963979965075850e-04
6.919900770299136639e-04
1.173262367956340313e-03
2.234864514321088791e-03
6.322580156847834587e-04
5.765497684478759766e-03
2.314621815457940102e-03
2.532070793677121401e-04
3.872861387208104134e-03
2.127718646079301834e-03
3.264894708991050720e-03
2.542200672905892134e-04
1.246582251042127609e-03
1.675374456681311131e-03
2.821508096531033516e-04
1.210242742672562599e-03
1.308516948483884335e-03
2.106567844748497009e-03
1.841470657382160425e-04
3.032469656318426132e-03
3.393910359591245651e-03
1.183758024126291275e-03
3.063390962779521942e-03
2.134393900632858276e-03
1.757617341354489326e-03
4.830731544643640518e-03
2.439213450998067856e-03
9.518769220449030399e-04
5.419423105195164680e-04
2.067752182483673096e-03
3.645860822871327400e-03
3.217012272216379642e-04
2.989761705975979567e-04
3.736951912287622690e-04
1.054454827681183815e-03
2.525239484384655952e-03
7.952963933348655701e-04
2.062984276562929153e-03
2.502759918570518494e-03
2.352265175431966782e-03
2.645032014697790146e-03
1.333640102529898286e-04
3.710188902914524078e-04
6.058889557607471943e-04
2.734450390562415123e-04
7.993296021595597267e-04
5.419955123215913773e-04
4.267787153366953135e-04
1.989292213693261147e-04
2.069049660349264741e-04
6.174226873554289341e-04
5.453298799693584442e-04
5.798951024189591408e-04
5.542389408219605684e-05
4.797575238626450300e-04
4.791775609191972762e-06
4.225704469718039036e-04
4.845379444304853678e-04
7.732732337899506092e-04
2.788585843518376350e-04
8.513735374435782433e-04
0.000000000000000000e+00
2.054949145531281829e-04
1.170958159491419792e-03
9.126485674642026424e-04
8.923246641643345356e-04
5.678298766724765301e-04
1.257898635230958462e-03
1.542916521430015564e-03
4.437744501046836376e-04
0.000000000000000000e+00
2.097860487992875278e-05
2.551439501985441893e-05
0.000000000000000000e+00
0.000000000000000000e+00
0.000000000000000000e+00
0.000000000000000000e+00
0.000000000000000000e+00
0.000000000000000000e+00
