9.468408990187526797e-08
3.228134119126480073e-06
1.657979919400531799e-05
3.233209281461313367e-05
5.085039811092428863e-05
7.550149894086644053e-05
1.238858239958062768e-04
2.016427315538749099e-04
2.966067404486238956e-04
4.634855140466243029e-04
7.327910861931741238e-04
1.302413293160498142e-03
2.310788724571466446e-03
5.991923622786998749e-03
1.082036178559064865e-02
1.293249148875474930e-02
1.463287882506847382e-02
1.501462049782276154e-02
1.451479550451040268e-02
1.350876688957214355e-02
1.224277075380086899e-02
1.090169604867696762e-02
8.740932680666446686e-03
6.349479779601097107e-03
4.822447896003723145e-03
3.944627009332180023e-03
3.443517722189426422e-03
3.167378017678856850e-03
3.017714479938149452e-03
2.930834423750638962e-03
2.878994215279817581e-03
2.841290086507797241e-03
2.817293629050254822e-03
2.799859270453453064e-03
2.780632814392447472e-03
2.771333791315555573e-03
2.757481066510081291e-03
2.730037085711956024e-03
2.713076537474989891e-03
2.715579699724912643e-03
2.701879944652318954e-03
2.696922281756997108e-03
2.689552260562777519e-03
2.684306586161255836e-03
2.660085214301943779e-03
2.657729433849453926e-03
2.659980207681655884e-03
2.658874727785587311e-03
2.656776690855622292e-03
2.659880556166172028e-03
2.658783691003918648e-03
2.653283067047595978e-03
2.643649699166417122e-03
2.653870498761534691e-03
2.657550154253840446e-03
2.647088374942541122e-03
2.634795615449547768e-03
2.644353779032826424e-03
2.650049282237887383e-03
2.665281761437654495e-03
2.641436178237199783e-03
2.640178194269537926e-03
2.636475255712866783e-03
2.638641046360135078e-03
2.642233390361070633e-03
2.637889003381133080e-03
2.648020861670374870e-03
2.647269750013947487e-03
2.641199622303247452e-03
2.652146620675921440e-03
2.645248547196388245e-03
2.629885682836174965e-03
2.639905782416462898e-03
2.635189564898610115e-03
2.632697345688939095e-03
2.628550399094820023e-03
2.633914351463317871e-03
2.633590018376708031e-03
2.626695437356829643e-03
2.625413471832871437e-03
2.626522211357951164e-03
2.624045126140117645e-03
2.629690105095505714e-03
2.623724518343806267e-03
2.627813955768942833e-03
2.629898255690932274e-03
2.620461164042353630e-03
2.619119593873620033e-03
2.626317320391535759e-03
2.629223745316267014e-03
2.616133075207471848e-03
2.617995720356702805e-03
2.626834670081734657e-03
2.622822532430291176e-03
2.628376707434654236e-03
2.626898931339383125e-03
2.620548941195011139e-03
2.629230730235576630e-03
2.636083634570240974e-03
2.641386352479457855e-03
2.623547101393342018e-03
2.636929741129279137e-03
2.650979673489928246e-03
2.649901434779167175e-03
2.640629187226295471e-03
2.653080970048904419e-03
2.651342889294028282e-03
2.671772381290793419e-03
2.676450647413730621e-03
2.664485713467001915e-03
2.671484602615237236e-03
2.691405126824975014e-03
2.697703894227743149e-03
2.700955606997013092e-03
2.703248756006360054e-03
2.697327407076954842e-03
2.708079759031534195e-03
2.706748200580477715e-03
2.701010787859559059e-03
2.722363453358411789e-03
2.718112198635935783e-03
2.720400923863053322e-03
2.730094594880938530e-03
2.734221285209059715e-03
2.737557981163263321e-03
2.733648288995027542e-03
2.745287725701928139e-03
2.731051295995712280e-03
2.735493239015340805e-03
2.718146657571196556e-03
2.752250991761684418e-03
2.737069735303521156e-03
2.749182982370257378e-03
2.732083667069673538e-03
2.757623558863997459e-03
2.752307802438735962e-03
2.751010470092296600e-03
2.759862923994660378e-03
2.750052604824304581e-03
2.744284691289067268e-03
2.752900822088122368e-03
2.751947613433003426e-03
2.762314863502979279e-03
2.765460405498743057e-03
2.757344627752900124e-03
2.763707889243960381e-03
2.775182714685797691e-03
2.782591385766863823e-03
2.776328474283218384e-03
2.786113182082772255e-03
2.780017443001270294e-03
2.782009774819016457e-03
2.787566976621747017e-03
2.790103433653712273e-03
2.787532750517129898e-03
2.785856369882822037e-03
2.796686720103025436e-03
2.797839231789112091e-03
2.788697369396686554e-03
2.800549613311886787e-03
2.796869026497006416e-03
2.791212406009435654e-03
2.805107273161411285e-03
2.804807852953672409e-03
2.801911439746618271e-03
2.810253296047449112e-03
2.813117811456322670e-03
2.812649589031934738e-03
2.814891980960965157e-03
2.818406792357563972e-03
2.821272006258368492e-03
2.821396803483366966e-03
2.826307667419314384e-03
2.820759080350399017e-03
2.822228707373142242e-03
2.824277384206652641e-03
2.824216615408658981e-03
2.831849036738276482e-03
2.837006701156497002e-03
2.849682001397013664e-03
2.846366725862026215e-03
2.852961886674165726e-03
2.859330968931317329e-03
2.863713540136814117e-03
2.871994161978363991e-03
2.872776007279753685e-03
2.878873143345117569e-03
2.875652164220809937e-03
2.881727647036314011e-03
2.888617571443319321e-03
2.900472842156887054e-03
2.905210247263312340e-03
2.931775990873575211e-03
2.944494131952524185e-03
2.989042317494750023e-03
3.030677791684865952e-03
3.088550176471471786e-03
3.152214456349611282e-03
3.311282023787498474e-03
3.303840057924389839e-03
3.576287534087896347e-03
3.643836127594113350e-03
3.758302889764308929e-03
4.060699138790369034e-03
4.409881774336099625e-03
4.370326641947031021e-03
3.855808405205607414e-03
3.832416143268346786e-03
4.662145394831895828e-03
5.087107885628938675e-03
5.277243908494710922e-03
6.204670295119285583e-03
7.128948345780372620e-03
7.752361707389354706e-03
7.270947098731994629e-03
6.024698726832866669e-03
6.849147845059633255e-03
8.463569916784763336e-03
9.065537713468074799e-03
9.450351819396018982e-03
9.801140055060386658e-03
1.030769292265176773e-02
1.112071052193641663e-02
1.195192057639360428e-02
1.217434648424386978e-02
1.172087155282497406e-02
1.111077144742012024e-02
1.098732091486454010e-02
1.137030683457851410e-02
1.018090546131134033e-02
1.074204687029123306e-02
1.179807446897029877e-02
1.296452246606349945e-02
1.208207570016384125e-02
1.191283762454986572e-02
1.295912731438875198e-02
1.308676972985267639e-02
1.297862827777862549e-02
1.241702586412429810e-02
1.419677492231130600e-02
1.170694176107645035e-02
8.131378330290317535e-03
5.612729117274284363e-03
3.559555392712354660e-03
1.386034651659429073e-03
4.577338404487818480e-04
1.073087405529804528e-04
2.352641968172974885e-05
1.231408168678171933e-05
6.200011284818174317e-06
2.424502781650517136e-06
5.097512598695175257e-07
