1.416563463862985373e-06
1.879346382338553667e-05
2.408511136309243739e-05
5.464242713060230017e-05
4.029731644550338387e-05
8.134024392347782850e-05
1.283359888475388288e-04
1.608395541552454233e-04
2.725888334680348635e-04
6.314002093859016895e-04
7.451736601069569588e-04
2.359175356104969978e-03
3.001339035108685493e-03
2.609305828809738159e-02
8.773585781455039978e-03
1.811718568205833435e-02
1.664546877145767212e-02
1.426852773874998093e-02
1.218560989946126938e-02
1.016322430223226547e-02
8.611038327217102051e-03
7.061425596475601196e-03
1.325139869004487991e-02
8.941922336816787720e-03
6.431471090763807297e-03
4.962472245097160339e-03
3.880016738548874855e-03
3.431942081078886986e-03
2.915551187470555305e-03
2.720120828598737717e-03
2.412131521850824356e-03
2.200490329414606094e-03
2.026672009378671646e-03
1.934317755512893200e-03
3.498654114082455635e-03
3.070784499868750572e-03
2.883672015741467476e-03
2.559273969382047653e-03
1.183288637548685074e-03
1.139529864303767681e-03
2.079913858324289322e-03
2.014272147789597511e-03
1.877191709354519844e-03
1.810274785384535789e-03
1.669815974310040474e-03
7.501497166231274605e-04
7.872175192460417747e-04
7.176732760854065418e-04
7.276628166437149048e-04
2.617220743559300900e-04
2.847490832209587097e-04
2.802596136461943388e-04
2.635615237522870302e-04
2.719256153795868158e-04
2.666395448613911867e-04
2.799452340696007013e-04
2.558130654506385326e-04
2.689956454560160637e-04
2.418932417640462518e-04
2.702253987081348896e-04
2.381864615017548203e-04
2.542051952332258224e-04
2.282716741319745779e-04
2.345668908674269915e-04
5.883802077732980251e-04
5.403283867053687572e-04
6.105255451984703541e-04
5.904336576350033283e-04
1.100659254007041454e-03
1.050546765327453613e-03
9.907531784847378731e-04
9.565874934196472168e-04
9.560744510963559151e-04
1.615899847820401192e-03
1.528477645479142666e-03
1.443473971448838711e-03
1.377751585096120834e-03
1.166491652838885784e-03
7.705010939389467239e-04
1.582796918228268623e-03
1.131622353568673134e-03
1.137177459895610809e-03
9.218355407938361168e-04
1.018608920276165009e-03
1.097368774935603142e-03
1.070590340532362461e-03
9.673897875472903252e-04
9.067826904356479645e-04
9.491122909821569920e-04
2.789910649880766869e-04
8.804438402876257896e-04
8.656109566800296307e-04
2.361315302550792694e-03
1.708034309558570385e-03
2.576701110228896141e-03
3.650479251518845558e-03
1.738308579660952091e-03
2.111118985339999199e-03
2.801203867420554161e-03
1.121567678637802601e-03
1.046259538270533085e-03
1.045915065333247185e-03
4.892748547717928886e-04
5.217358702793717384e-04
5.790194263681769371e-04
3.403243841603398323e-03
3.147924551740288734e-03
2.674258779734373093e-03
3.929008264094591141e-03
9.551070979796350002e-04
2.247004769742488861e-03
3.139452775940299034e-03
2.980797318741679192e-03
1.770876697264611721e-03
2.468759194016456604e-03
1.317635411396622658e-03
9.039611904881894588e-04
7.093546446412801743e-04
9.053242974914610386e-04
7.665436714887619019e-04
9.200986823998391628e-04
3.079380607232451439e-03
2.802691422402858734e-03
2.478593960404396057e-03
1.204123720526695251e-03
4.508791316766291857e-04
1.333494437858462334e-03
4.131393216084688902e-04
1.040382077917456627e-03
4.043501976411789656e-04
3.721954708453267813e-04
7.897531613707542419e-04
1.033837615977972746e-04
9.462689195061102509e-05
2.950032067019492388e-04
3.070418024435639381e-04
8.142598089762032032e-04
3.951381950173527002e-04
1.013368950225412846e-03
9.857111144810914993e-04
1.147818518802523613e-03
8.024828275665640831e-04
1.955944346264004707e-03
1.378183951601386070e-03
1.562987687066197395e-03
2.368819667026400566e-03
1.469314331188797951e-03
9.248035494238138199e-04
8.833606261759996414e-04
1.096848514862358570e-03
1.895271241664886475e-03
1.584987971000373363e-03
1.491966890171170235e-03
6.086714565753936768e-04
2.808055840432643890e-03
2.276208950206637383e-03
1.296734437346458435e-03
1.146352733485400677e-03
8.529545157216489315e-04
1.414643367752432823e-03
8.181659504771232605e-04
3.938469453714787960e-04
3.875832480844110250e-04
7.228780305013060570e-04
4.774325992912054062e-03
5.320896394550800323e-03
1.702244742773473263e-03
1.279365853406488895e-03
1.294213434448465705e-04
4.933985765092074871e-04
2.502719580661505461e-04
1.420235144905745983e-03
8.107421454042196274e-04
3.245277039241045713e-04
1.529269269667565823e-03
2.697482937946915627e-03
5.277247633785009384e-03
2.119898563250899315e-03
1.840314641594886780e-02
6.093054078519344330e-03
6.136336014606058598e-04
1.024720910936594009e-02
6.166845094412565231e-03
8.358569815754890442e-03
1.020052586682140827e-03
4.849414341151714325e-03
6.506310310214757919e-03
7.135289488360285759e-04
3.401521593332290649e-03
5.984950345009565353e-03
7.271820213645696640e-03
1.316682668402791023e-03
1.263279747217893600e-02
1.116584241390228271e-02
5.689874291419982910e-03
1.088112778961658478e-02
9.333780035376548767e-03
5.962378811091184616e-03
1.629860699176788330e-02
1.455610059201717377e-02
4.257231485098600388e-03
1.653876388445496559e-03
6.172927562147378922e-03
9.779941290616989136e-03
1.596816349774599075e-03
5.120893009006977081e-03
1.445144764147698879e-03
6.022875662893056870e-03
1.370928622782230377e-02
9.536634199321269989e-03
1.767263561487197876e-02
2.183385752141475677e-02
1.669449545443058014e-02
1.808149553835391998e-02
4.325995221734046936e-03
3.440531436353921890e-03
5.563669372349977493e-03
4.652247298508882523e-03
1.194523274898529053e-02
4.684866406023502350e-03
5.449922755360603333e-03
1.359408255666494370e-02
1.777999917976558208e-03
1.456826552748680115e-02
1.284144073724746704e-02
6.598576903343200684e-03
2.142455894500017166e-03
3.569183871150016785e-03
3.081073751673102379e-03
1.164021808654069901e-02
1.146242860704660416e-02
1.209825370460748672e-02
6.393561139702796936e-03
7.379183545708656311e-03
4.197086207568645477e-03
4.912322852760553360e-03
1.065467670559883118e-02
3.165315091609954834e-02
3.462113812565803528e-02
8.370149880647659302e-03
2.537537366151809692e-02
3.338781744241714478e-02
6.975285708904266357e-03
1.145246159285306931e-02
3.712075995281338692e-03
1.003526733256876469e-03
2.967723121400922537e-04
1.957849781319964677e-05
5.474862064147600904e-06
7.141255537135293707e-06
2.131653445758274756e-06
6.302576593952835537e-07
