4.674181397490428935e-08
1.809471996239153668e-06
1.045071530825225636e-05
3.725163333001546562e-05
5.131030775373801589e-05
6.976238364586606622e-05
8.880039240466430783e-05
1.456786994822323322e-04
2.815119514707475901e-04
4.572699253913015127e-04
6.201929063536226749e-04
1.192551921121776104e-03
2.184995217248797417e-03
5.836666561663150787e-03
1.073782145977020264e-02
1.316635869443416595e-02
1.544350292533636093e-02
1.610250771045684814e-02
1.557836867868900299e-02
1.489149220287799835e-02
1.379121746867895126e-02
1.242714188992977142e-02
9.978174231946468353e-03
7.461741566658020020e-03
5.671980325132608414e-03
4.694784991443157196e-03
4.040362313389778137e-03
3.706390038132667542e-03
3.492936491966247559e-03
3.366028424352407455e-03
3.279320430010557175e-03
3.231765469536185265e-03
3.204562701284885406e-03
3.177004167810082436e-03
3.152566729113459587e-03
3.121280577033758163e-03
3.099608002230525017e-03
3.062755800783634186e-03
3.012805478647351265e-03
3.027966711670160294e-03
2.991809276863932610e-03
3.001861972734332085e-03
2.983283018693327904e-03
2.969408873468637466e-03
2.931082388386130333e-03
2.924211788922548294e-03
2.910470124334096909e-03
2.928176429122686386e-03
2.900182036682963371e-03
2.901100087910890579e-03
2.867464907467365265e-03
2.864572685211896896e-03
2.885223831981420517e-03
2.910169772803783417e-03
2.914885990321636200e-03
2.950568450614809990e-03
2.903432119637727737e-03
2.886852016672492027e-03
2.932739676907658577e-03
2.887754468247294426e-03
2.901438390836119652e-03
2.848777920007705688e-03
2.867443021386861801e-03
2.824385883286595345e-03
2.873411634936928749e-03
2.881671534851193428e-03
2.879742300137877464e-03
2.852373523637652397e-03
2.872292650863528252e-03
2.854913705959916115e-03
2.871279139071702957e-03
2.849859651178121567e-03
2.840688917785882950e-03
2.845021896064281464e-03
2.838587854057550430e-03
2.855990547686815262e-03
2.843447029590606689e-03
2.841104753315448761e-03
2.832788741216063499e-03
2.844125032424926758e-03
2.825210802257061005e-03
2.810435369610786438e-03
2.826791256666183472e-03
2.848199568688869476e-03
2.799554727971553802e-03
2.807974582538008690e-03
2.831268124282360077e-03
2.818137872964143753e-03
2.830418525263667107e-03
2.830009674653410912e-03
2.827095799148082733e-03
2.838999498635530472e-03
2.829981269314885139e-03
2.821055706590414047e-03
2.824173308908939362e-03
2.802966861054301262e-03
2.807914745062589645e-03
2.796450396999716759e-03
2.806032076478004456e-03
2.806597622111439705e-03
2.786719240248203278e-03
2.787739969789981842e-03
2.831969643011689186e-03
2.836353844031691551e-03
2.802087226882576942e-03
2.833097940310835838e-03
2.814450301229953766e-03
2.833580365404486656e-03
2.832569880411028862e-03
2.839810680598020554e-03
2.848330186679959297e-03
2.862058579921722412e-03
2.856704173609614372e-03
2.861782908439636230e-03
2.856758423149585724e-03
2.850442426279187202e-03
2.863404806703329086e-03
2.878022845834493637e-03
2.869829768314957619e-03
2.874603960663080215e-03
2.893542172387242317e-03
2.890624105930328369e-03
2.885594265535473824e-03
2.896907506510615349e-03
2.898846520110964775e-03
2.871700329706072807e-03
2.925856737419962883e-03
2.901355968788266182e-03
2.907417016103863716e-03
2.888950984925031662e-03
2.902662381529808044e-03
2.926131011918187141e-03
2.898297272622585297e-03
2.913613803684711456e-03
2.874652855098247528e-03
2.907950431108474731e-03
2.909596776589751244e-03
2.902331296354532242e-03
2.921125153079628944e-03
2.931564813479781151e-03
2.903149230405688286e-03
2.907172543928027153e-03
2.942257095128297806e-03
2.933924552053213120e-03
2.919883700087666512e-03
2.951037138700485229e-03
2.956536831334233284e-03
2.940191421657800674e-03
2.971832873299717903e-03
2.961477264761924744e-03
2.941293641924858093e-03
2.951925387606024742e-03
2.963130362331867218e-03
2.974150702357292175e-03
2.964040962979197502e-03
2.961886581033468246e-03
2.980768913403153419e-03
2.965588588267564774e-03
3.009218722581863403e-03
2.990662818774580956e-03
2.960434881970286369e-03
2.960465382784605026e-03
2.978938631713390350e-03
2.990103326737880707e-03
2.977899741381406784e-03
2.988308435305953026e-03
3.011500462889671326e-03
2.977983327582478523e-03
2.979508368298411369e-03
2.956700744107365608e-03
3.029780928045511246e-03
2.991179935634136200e-03
3.007692284882068634e-03
2.980843652039766312e-03
2.996342722326517105e-03
3.027933649718761444e-03
3.023596014827489853e-03
3.033201210200786591e-03
3.043153556063771248e-03
3.064660821110010147e-03
3.063135314732789993e-03
3.066196804866194725e-03
3.093211678788065910e-03
3.106319811195135117e-03
3.108697710558772087e-03
3.124674083665013313e-03
3.133771009743213654e-03
3.125952091068029404e-03
3.145989030599594116e-03
3.157093189656734467e-03
3.186860121786594391e-03
3.184810979291796684e-03
3.234125208109617233e-03
3.279865253716707230e-03
3.330858424305915833e-03
3.403098089620471001e-03
3.478906583040952682e-03
3.565711667761206627e-03
3.709206823259592056e-03
3.846429288387298584e-03
4.104277119040489197e-03
4.178842063993215561e-03
4.294994287192821503e-03
4.476167727261781693e-03
4.658735822886228561e-03
4.682565573602914810e-03
4.558998625725507736e-03
4.590367432683706284e-03
5.099444650113582611e-03
5.482902750372886658e-03
5.827036686241626740e-03
6.661251187324523926e-03
7.304639089852571487e-03
7.859807461500167847e-03
8.237281814217567444e-03
7.819282822310924530e-03
8.093739859759807587e-03
8.623166941106319427e-03
8.562081493437290192e-03
8.512358181178569794e-03
8.228620514273643494e-03
7.252532057464122772e-03
9.373041801154613495e-03
1.002033799886703491e-02
9.721277281641960144e-03
9.581213817000389099e-03
9.325937367975711823e-03
9.319934993982315063e-03
9.365492500364780426e-03
8.809817954897880554e-03
9.089309722185134888e-03
9.596066549420356750e-03
1.019605807960033417e-02
1.001871749758720398e-02
1.005526725202798843e-02
1.054251752793788910e-02
1.068753842264413834e-02
1.086793094873428345e-02
9.328555315732955933e-03
9.050396271049976349e-03
6.358228158205747604e-03
4.678778350353240967e-03
3.403308801352977753e-03
2.139161340892314911e-03
8.452698821201920509e-04
2.821974048856645823e-04
6.789942563045769930e-05
1.572695873619522899e-05
7.939513125165831298e-06
4.145729235460748896e-06
1.622475451767968480e-06
3.041301965822640341e-07
