0.000000000000000000e+00
2.642152367116068490e-06
1.049066668201703578e-05
3.680864392663352191e-05
7.441452180501073599e-05
5.184092879062518477e-05
1.009509724099189043e-04
2.052211348200216889e-04
3.273934416938573122e-04
5.839398363605141640e-04
7.906126556918025017e-04
1.417364575900137424e-03
2.742254873737692833e-03
7.106755394488573074e-03
1.296159066259860992e-02
1.626642234623432159e-02
1.811328902840614319e-02
1.901016756892204285e-02
1.832025498151779175e-02
1.658285968005657196e-02
1.636222004890441895e-02
1.441308576613664627e-02
1.135459542274475098e-02
8.139782585203647614e-03
5.771282594650983810e-03
4.430306609719991684e-03
3.503891173750162125e-03
3.800415201112627983e-03
3.294860478490591049e-03
3.438508836552500725e-03
2.887112554162740707e-03
3.135657170787453651e-03
2.802133327350020409e-03
2.855993574485182762e-03
2.843234920874238014e-03
2.894973848015069962e-03
2.728473627939820290e-03
2.686890540644526482e-03
3.467338392511010170e-03
2.635159529745578766e-03
2.589864656329154968e-03
2.623534528538584709e-03
2.586503047496080399e-03
2.674020361155271530e-03
2.870370401069521904e-03
3.865664359182119370e-03
2.985284430906176567e-03
2.656043274328112602e-03
2.378050237894058228e-03
2.003655303269624710e-03
3.160178894177079201e-03
4.055311903357505798e-03
2.661240054294466972e-03
3.255654126405715942e-03
2.684006700292229652e-03
1.988647971302270889e-03
2.408380154520273209e-03
3.045483725145459175e-03
4.112008027732372284e-03
3.569498658180236816e-03
1.987494993954896927e-03
2.194315660744905472e-03
2.398598007857799530e-03
2.226128941401839256e-03
2.919740276411175728e-03
3.014008514583110809e-03
3.646411700174212456e-03
2.399845514446496964e-03
2.597965067252516747e-03
3.134348895400762558e-03
2.736477646976709366e-03
2.501331968232989311e-03
2.499348251149058342e-03
2.931550843641161919e-03
2.473043743520975113e-03
2.858057850971817970e-03
2.779788803309202194e-03
2.653498901054263115e-03
2.708413172513246536e-03
3.071481129154562950e-03
2.652585273608565331e-03
2.381022321060299873e-03
2.327207708731293678e-03
2.546588191762566566e-03
2.896060235798358917e-03
2.475753892213106155e-03
2.176714129745960236e-03
2.506394637748599052e-03
2.880519721657037735e-03
2.920502098277211189e-03
3.282372374087572098e-03
2.368541201576590538e-03
2.927321242168545723e-03
2.634727628901600838e-03
2.942684805020689964e-03
3.170307725667953491e-03
3.095488296821713448e-03
3.108421806246042252e-03
3.045888850465416908e-03
2.988597843796014786e-03
2.924571512266993523e-03
2.611283445730805397e-03
2.903563203290104866e-03
2.280681161209940910e-03
3.109712153673171997e-03
3.157098777592182159e-03
3.239467507228255272e-03
3.380280220881104469e-03
3.218499245122075081e-03
3.179188352078199387e-03
3.624085336923599243e-03
3.098851302638649940e-03
3.349236678332090378e-03
3.367734141647815704e-03
3.103454597294330597e-03
3.481564577668905258e-03
3.502761712297797203e-03
3.558954922482371330e-03
3.421491011977195740e-03
3.338452428579330444e-03
2.761641051620244980e-03
3.270875429734587669e-03
3.250402864068746567e-03
3.040349576622247696e-03
2.911760006099939346e-03
2.885923022404313087e-03
3.188340226188302040e-03
3.731772536411881447e-03
3.435463178902864456e-03
3.046668600291013718e-03
3.688032738864421844e-03
2.924320055171847343e-03
3.381713293492794037e-03
3.608561586588621140e-03
3.868742147460579872e-03
3.346795449033379555e-03
2.763089723885059357e-03
3.199605038389563560e-03
3.335579764097929001e-03
3.894471097737550735e-03
3.640420734882354736e-03
3.512181108817458153e-03
3.517446806654334068e-03
3.270230954512953758e-03
3.869271371513605118e-03
3.463733475655317307e-03
3.323842538520693779e-03
3.534725401550531387e-03
3.523219609633088112e-03
4.108473658561706543e-03
3.607972525060176849e-03
3.399887587875127792e-03
3.315906738862395287e-03
4.199026152491569519e-03
3.318319329991936684e-03
3.522898303344845772e-03
3.674186533316969872e-03
3.994131926447153091e-03
3.522813320159912109e-03
3.270989749580621719e-03
4.274507984519004822e-03
3.023144090548157692e-03
3.726748516783118248e-03
3.045416204258799553e-03
3.772923722863197327e-03
3.461551852524280548e-03
3.889612155035138130e-03
3.736677812412381172e-03
3.482037223875522614e-03
3.553393296897411346e-03
4.386057611554861069e-03
3.446382936090230942e-03
3.453475888818502426e-03
3.820726182311773300e-03
3.927433397620916367e-03
3.569079330191016197e-03
3.803828731179237366e-03
3.510927315801382065e-03
3.581736935302615166e-03
3.800665726885199547e-03
3.490806790068745613e-03
4.017574712634086609e-03
3.733647288754582405e-03
3.653557039797306061e-03
3.697199514135718346e-03
3.798097372055053711e-03
3.861531149595975876e-03
3.619667841121554375e-03
3.601307747885584831e-03
3.693391801789402962e-03
3.492745570838451385e-03
4.084974527359008789e-03
3.632215550169348717e-03
3.627986181527376175e-03
3.899230621755123138e-03
3.765849396586418152e-03
3.788830013945698738e-03
3.937298431992530823e-03
3.943861927837133408e-03
4.159787669777870178e-03
4.023931920528411865e-03
5.167991854250431061e-03
4.578338004648685455e-03
4.515605513006448746e-03
5.888931918889284134e-03
4.484076052904129028e-03
4.404545761644840240e-03
4.609384108334779739e-03
5.013823509216308594e-03
5.350810009986162186e-03
5.460912361741065979e-03
6.284382194280624390e-03
6.323800887912511826e-03
6.683774292469024658e-03
6.695913150906562805e-03
7.124832365661859512e-03
7.622008677572011948e-03
6.845853291451931000e-03
6.414036732167005539e-03
7.522293832153081894e-03
5.855767056345939636e-03
5.423223599791526794e-03
7.690808735787868500e-03
7.192081306129693985e-03
7.186067756265401840e-03
7.203487213701009750e-03
7.746275048702955246e-03
7.128178142011165619e-03
8.076345548033714294e-03
7.114136591553688049e-03
6.440895609557628632e-03
6.463482044637203217e-03
7.284281775355339050e-03
7.427743636071681976e-03
7.607364095747470856e-03
7.629214785993099213e-03
8.197144605219364166e-03
8.206260390579700470e-03
6.181181408464908600e-03
4.365044645965099335e-03
2.777253044769167900e-03
2.609272021800279617e-03
2.031644107773900032e-03
1.296136761084198952e-03
4.845794173888862133e-04
1.977438805624842644e-04
3.457036291365511715e-05
0.000000000000000000e+00
0.000000000000000000e+00
9.811839845497161150e-06
0.000000000000000000e+00
0.000000000000000000e+00
