6.808024295423820149e-07
5.587252871919190511e-06
3.095625288551673293e-05
1.501108781667426229e-04
2.209312369814142585e-04
2.188285143347457051e-04
2.627967332955449820e-04
6.054276600480079651e-04
1.305280486121773720e-03
1.665811985731124878e-03
2.373852301388978958e-03
4.656461067497730255e-03
8.119137026369571686e-03
2.084463834762573242e-02
3.852303326129913330e-02
4.570305347442626953e-02
5.201396718621253967e-02
5.334996059536933899e-02
4.981081932783126831e-02
4.651694744825363159e-02
4.139131307601928711e-02
3.543816506862640381e-02
2.657502517104148865e-02
1.600893586874008179e-02
1.128417346626520157e-02
6.474622525274753571e-03
4.539953079074621201e-03
3.557900432497262955e-03
3.177126636728644371e-03
3.657658118754625320e-03
3.261920763179659843e-03
2.604139037430286407e-03
2.732127672061324120e-03
2.628659131005406380e-03
2.777256071567535400e-03
2.963798353448510170e-03
2.676530042663216591e-03
2.524572424590587616e-03
2.171909669414162636e-03
3.261438570916652679e-03
2.987873042002320290e-03
2.735659014433622360e-03
2.864348934963345528e-03
2.626068657264113426e-03
2.572979079559445381e-03
2.657585311681032181e-03
1.868798281066119671e-03
2.006063936278223991e-03
3.492759773507714272e-03
2.127265557646751404e-03
4.720408003777265549e-03
4.371234681457281113e-03
1.456423429772257805e-03
3.424552036449313164e-03
2.782805124297738075e-03
1.989629585295915604e-03
1.836221548728644848e-03
1.566904247738420963e-03
1.597259542904794216e-03
1.243615290150046349e-03
2.842718036845326424e-03
2.846759045496582985e-03
1.936112646944820881e-03
3.044620156288146973e-03
1.852962886914610863e-03
2.739571500569581985e-03
1.903986092656850815e-03
2.494415268301963806e-03
2.459228737279772758e-03
2.501962706446647644e-03
2.603173721581697464e-03
1.674081664532423019e-03
2.356924116611480713e-03
2.516167936846613884e-03
2.193300519138574600e-03
2.116574440151453018e-03
2.096118172630667686e-03
2.639807062223553658e-03
3.362036542966961861e-03
1.959550892934203148e-03
2.553897909820079803e-03
2.022690605372190475e-03
2.277220599353313446e-03
2.178049413487315178e-03
1.993618439882993698e-03
1.189239206723868847e-03
2.276442246511578560e-03
1.952358521521091461e-03
2.071146387606859207e-03
1.435160636901855469e-03
2.878656378015875816e-03
2.354278694838285446e-03
2.341419458389282227e-03
2.393602626398205757e-03
2.111543668434023857e-03
2.206140197813510895e-03
2.267801668494939804e-03
2.316866070032119751e-03
1.962737878784537315e-03
2.974577480927109718e-03
2.569789765402674675e-03
2.027930226176977158e-03
2.427384955808520317e-03
2.583084162324666977e-03
1.881405594758689404e-03
1.781873288564383984e-03
2.402820158749818802e-03
2.821037080138921738e-03
2.155253197997808456e-03
2.198972040787339211e-03
2.216589171439409256e-03
2.627595793455839157e-03
2.231812104582786560e-03
1.808786881156265736e-03
2.656336175277829170e-03
2.464852062985301018e-03
2.477379282936453819e-03
2.148064784705638885e-03
2.175373723730444908e-03
1.424883608706295490e-03
2.456543268635869026e-03
2.477778121829032898e-03
2.648870926350355148e-03
1.886221347376704216e-03
1.788919325917959213e-03
3.701226785778999329e-03
1.775527372956275940e-03
1.692179357632994652e-03
1.508194836787879467e-03
1.984175294637680054e-03
3.267382970079779625e-03
1.862411852926015854e-03
0.000000000000000000e+00
5.424250848591327667e-04
5.012038745917379856e-04
3.862823359668254852e-03
1.921542687341570854e-03
2.506674267351627350e-03
2.204583724960684776e-03
2.385113853961229324e-03
1.802562852390110493e-03
3.391440492123365402e-03
2.412055386230349541e-03
1.521183876320719719e-03
2.640131162479519844e-03
2.008265815675258636e-03
2.867809962481260300e-03
1.504347892478108406e-03
2.468145219609141350e-03
3.051268635317683220e-03
1.920185051858425140e-03
2.457939786836504936e-03
2.435804810374975204e-03
2.646039705723524094e-03
1.816367497667670250e-03
1.977602485567331314e-03
1.413300051353871822e-03
2.971695270389318466e-03
1.743605243973433971e-03
2.310493262484669685e-03
1.829773536883294582e-03
3.614387242123484612e-03
1.785289379768073559e-03
2.718416508287191391e-03
2.212449442595243454e-03
2.126621315255761147e-03
2.479794668033719063e-03
2.127399668097496033e-03
2.721313154324889183e-03
1.654691412113606930e-03
4.567361902445554733e-03
2.120443154126405716e-03
2.497618319466710091e-03
1.813150942325592041e-03
2.236872212961316109e-03
2.314259763807058334e-03
1.731540658511221409e-03
2.368882531300187111e-03
2.071099122986197472e-03
2.032424090430140495e-03
9.535020217299461365e-04
2.101000631228089333e-03
2.003101631999015808e-03
1.855194685049355030e-03
2.250557998195290565e-03
2.198306843638420105e-03
2.043702639639377594e-03
2.490996848791837692e-03
1.917269080877304077e-03
2.044102642685174942e-03
1.577101065777242184e-03
2.019823063164949417e-03
1.921602757647633553e-03
1.931402366608381271e-03
1.762956380844116211e-03
1.740453182719647884e-03
2.123708836734294891e-03
1.921082963235676289e-03
1.833866932429373264e-03
2.153073437511920929e-03
1.756815705448389053e-03
1.930441474542021751e-03
2.233791630715131760e-03
2.415210707113146782e-03
2.768775448203086853e-03
2.602076390758156776e-03
3.071625251322984695e-03
1.898696064017713070e-03
2.338006393983960152e-03
2.225080737844109535e-03
2.608274342492222786e-03
3.261370584368705750e-03
3.448932664468884468e-03
3.192586125805974007e-03
3.705692943185567856e-03
2.981891157105565071e-03
2.375148702412843704e-03
3.577325725927948952e-03
3.293341491371393204e-03
3.056963207200169563e-03
2.953264163807034492e-03
3.080692607909440994e-03
3.426932962611317635e-03
4.186908248811960220e-03
4.269741475582122803e-03
2.961152698844671249e-03
4.559410270303487778e-03
3.679955611005425453e-03
4.047196824103593826e-03
2.896727994084358215e-03
3.985817078500986099e-03
4.138267599046230316e-03
4.499560687690973282e-03
3.703113878145813942e-03
4.873794503509998322e-03
4.078601952642202377e-03
3.328563179820775986e-03
4.382059909403324127e-03
3.110587364062666893e-03
2.213211962953209877e-03
1.059394213370978832e-03
1.367035089060664177e-03
1.027979655191302299e-03
6.450040382333099842e-04
3.515093121677637100e-04
1.783439802238717675e-04
3.968875535065308213e-05
1.630803672014735639e-05
0.000000000000000000e+00
3.753176088139298372e-06
0.000000000000000000e+00
0.000000000000000000e+00
