0.000000000000000000e+00
5.782083576377772260e-07
3.878025381709448993e-06
1.570279346196912229e-05
1.558061740070115775e-05
1.323243577644461766e-05
3.560788900358602405e-05
7.107665442163124681e-05
1.211247727042064071e-04
1.540082448627799749e-04
2.312403230462223291e-04
4.865988739766180515e-04
8.690124959684908390e-04
2.452468033879995346e-03
4.606176633387804031e-03
5.449990741908550262e-03
6.395209580659866333e-03
7.005013059824705124e-03
7.210948504507541656e-03
6.603600922971963882e-03
6.978078745305538177e-03
6.301840301603078842e-03
5.482967942953109741e-03
4.198642913252115250e-03
4.038905259221792221e-03
3.240769030526280403e-03
3.008649684488773346e-03
2.780328039079904556e-03
3.039435949176549911e-03
2.346757100895047188e-03
2.531206468120217323e-03
2.819222398102283478e-03
2.820963272824883461e-03
2.646511187776923180e-03
2.779377624392509460e-03
2.501300303265452385e-03
2.734607318416237831e-03
2.906969049945473671e-03
2.861998509615659714e-03
3.211657982319593430e-03
2.598820487037301064e-03
2.853823127225041389e-03
2.637677360326051712e-03
2.699363743886351585e-03
2.631836803629994392e-03
2.877188846468925476e-03
2.605006098747253418e-03
2.844598609954118729e-03
2.267898060381412506e-03
2.539381850510835648e-03
1.988058211281895638e-03
3.044409211724996567e-03
3.208701033145189285e-03
2.679064171388745308e-03
2.403095364570617676e-03
2.582143992185592651e-03
3.024659119546413422e-03
2.518730703741312027e-03
1.950324745848774910e-03
2.498735440894961357e-03
3.235530341044068336e-03
2.091294387355446815e-03
2.436372451484203339e-03
2.822580281645059586e-03
2.962522907182574272e-03
2.569528529420495033e-03
2.558740321546792984e-03
2.260472625494003296e-03
2.840370405465364456e-03
2.286269329488277435e-03
2.660554833710193634e-03
2.879029605537652969e-03
2.645928179845213890e-03
2.452504588291049004e-03
2.721416996791958809e-03
3.059912938624620438e-03
2.651035552844405174e-03
2.510247286409139633e-03
2.593472367152571678e-03
2.416624687612056732e-03
1.957728760316967964e-03
2.563649322837591171e-03
2.469789469614624977e-03
2.654134295880794525e-03
2.638041041791439056e-03
2.643045736476778984e-03
2.909302245825529099e-03
2.513583051040768623e-03
2.607885282486677170e-03
2.974109258502721786e-03
2.712386660277843475e-03
2.824530005455017090e-03
2.854877384379506111e-03
2.515166299417614937e-03
2.877755090594291687e-03
2.408882835879921913e-03
2.854109741747379303e-03
2.515023807063698769e-03
2.219194313511252403e-03
2.093548420816659927e-03
2.745886100456118584e-03
2.412191592156887054e-03
2.855389146134257317e-03
3.026102436706423759e-03
2.602324821054935455e-03
2.409311011433601379e-03
2.535459352657198906e-03
2.601257991045713425e-03
2.908935304731130600e-03
2.478517824783921242e-03
2.771398052573204041e-03
2.616904210299253464e-03
2.684317063540220261e-03
2.604703186079859734e-03
2.861202228814363480e-03
2.977489260956645012e-03
3.025507321581244469e-03
2.926174784079194069e-03
2.896477468311786652e-03
2.626851433888077736e-03
2.358773024752736092e-03
2.621994586661458015e-03
2.698497846722602844e-03
2.741079311817884445e-03
2.778817666694521904e-03
2.211679238826036453e-03
2.569384407252073288e-03
2.935452852398157120e-03
3.403989132493734360e-03
3.023133380338549614e-03
2.068464411422610283e-03
2.730343956500291824e-03
3.882519202306866646e-03
3.480455372482538223e-03
1.967584015801548958e-03
3.916944842785596848e-03
3.233421826735138893e-03
3.212163457646965981e-03
2.953662071377038956e-03
2.958321245387196541e-03
2.557691186666488647e-03
2.849331824108958244e-03
2.973257796838879585e-03
2.641419414430856705e-03
2.940426347777247429e-03
3.384901909157633781e-03
2.509234240278601646e-03
2.790934406220912933e-03
2.967991167679429054e-03
3.045745193958282471e-03
2.901742933318018913e-03
2.613145858049392700e-03
2.828014083206653595e-03
2.789057791233062744e-03
2.660593949258327484e-03
3.005152568221092224e-03
3.000684548169374466e-03
2.519654808565974236e-03
2.620360814034938812e-03
2.829256467521190643e-03
3.517190460115671158e-03
2.101225079968571663e-03
2.306328620761632919e-03
3.545426297932863235e-03
3.136412240564823151e-03
2.803860232234001160e-03
2.886517671868205070e-03
2.772972686216235161e-03
3.739976789802312851e-03
2.330060116946697235e-03
2.261483808979392052e-03
2.874483121559023857e-03
2.985390834510326385e-03
3.733299206942319870e-03
2.942519029602408409e-03
3.032411681488156319e-03
2.908553229644894600e-03
2.645302796736359596e-03
3.019718220457434654e-03
3.001337172463536263e-03
2.871644683182239532e-03
3.107618074864149094e-03
3.110841615125536919e-03
3.044901415705680847e-03
3.302089171484112740e-03
3.196846693754196167e-03
3.227630862966179848e-03
2.709073014557361603e-03
3.078183624893426895e-03
3.072396619245409966e-03
3.189342794939875603e-03
3.467706032097339630e-03
3.375260857865214348e-03
3.028509672731161118e-03
3.363868687301874161e-03
3.408328862860798836e-03
3.134575206786394119e-03
3.511536633595824242e-03
4.131284076720476151e-03
3.142784116789698601e-03
3.644577693194150925e-03
4.397710319608449936e-03
4.179343115538358688e-03
5.169250536710023880e-03
6.885796319693326950e-03
6.005395203828811646e-03
3.233760362491011620e-03
3.046404104679822922e-03
5.737971514463424683e-03
6.745065562427043915e-03
5.748623050749301910e-03
7.477706298232078552e-03
8.156672120094299316e-03
9.816834703087806702e-03
9.664527140557765961e-03
7.629485335201025009e-03
8.689531125128269196e-03
1.062213815748691559e-02
1.025941781699657440e-02
1.103834435343742371e-02
1.145478710532188416e-02
1.281196065247058868e-02
1.320611499249935150e-02
1.523354742676019669e-02
1.346825528889894485e-02
1.328863110393285751e-02
1.142997387796640396e-02
1.251759566366672516e-02
1.434728316962718964e-02
1.225847750902175903e-02
1.359284389764070511e-02
1.286418270319700241e-02
1.466997060924768448e-02
1.398491952568292618e-02
1.382715906947851181e-02
1.489758677780628204e-02
1.423543132841587067e-02
1.431557815521955490e-02
1.353990565985441208e-02
1.528790034353733063e-02
1.197909656912088394e-02
8.018256165087223053e-03
5.553347989916801453e-03
3.640767419710755348e-03
1.253255759365856647e-03
4.020507622044533491e-04
8.228388469433411956e-05
2.667115404619835317e-05
1.717538543744012713e-05
0.000000000000000000e+00
0.000000000000000000e+00
0.000000000000000000e+00
