7.571017590635165107e-07
1.206879187520826235e-05
6.016435872879810631e-05
1.473878946853801608e-04
2.720403717830777168e-04
2.816852938849478960e-04
6.075393175706267357e-04
9.917388670146465302e-04
1.412475248798727989e-03
2.147915540263056755e-03
3.014611545950174332e-03
6.128862034529447556e-03
1.037879567593336105e-02
2.715299278497695923e-02
5.060508102178573608e-02
6.029504910111427307e-02
6.893082708120346069e-02
6.534635275602340698e-02
6.626277416944503784e-02
6.049205362796783447e-02
5.077972635626792908e-02
4.648901894688606262e-02
3.476493433117866516e-02
2.232355996966362000e-02
1.133767142891883850e-02
8.628987707197666168e-03
5.665333941578865051e-03
3.729430492967367172e-03
3.058838425204157829e-03
2.534579485654830933e-03
2.942167920991778374e-03
1.754185068421065807e-03
3.824000712484121323e-03
2.418600954115390778e-03
2.668643835932016373e-03
2.402074402198195457e-03
2.886075992137193680e-03
1.939737820066511631e-03
9.510578238405287266e-04
3.771032672375440598e-03
1.999571220949292183e-03
1.931943465024232864e-03
4.066861234605312347e-03
2.570280106738209724e-03
1.698805135674774647e-03
4.253325052559375763e-03
2.881612395867705345e-03
3.967204596847295761e-03
8.594497339800000191e-04
3.298825584352016449e-03
2.644777065142989159e-03
3.902486525475978851e-03
2.962166909128427505e-03
1.585705904290080070e-03
3.346684854477643967e-03
5.090122576802968979e-04
0.000000000000000000e+00
1.680040615610778332e-03
2.864808309823274612e-03
2.166247926652431488e-03
2.726518781855702400e-03
1.025617239065468311e-03
2.425622893497347832e-03
2.690888242796063423e-03
9.329367894679307938e-04
1.355708809569478035e-03
6.123552098870277405e-03
2.527941716834902763e-03
2.180529758334159851e-03
3.740799147635698318e-03
1.255895709618926048e-03
2.524679526686668396e-03
1.694745267741382122e-03
1.605036668479442596e-03
2.591761061921715736e-03
2.632931340485811234e-03
2.529015298932790756e-03
1.348365214653313160e-03
1.962783979251980782e-03
2.305700909346342087e-03
1.115936902351677418e-03
1.517570461146533489e-03
2.605027053505182266e-03
1.806706422939896584e-03
1.050501829013228416e-03
2.237958833575248718e-03
5.212761461734771729e-04
8.827525307424366474e-04
2.815622836351394653e-03
4.343485634308308363e-04
2.543350448831915855e-03
1.351088751107454300e-03
1.919773058034479618e-03
2.596373669803142548e-03
1.849307911470532417e-03
2.011252334341406822e-03
3.327537560835480690e-03
2.073234878480434418e-03
1.814583200030028820e-03
3.140795743092894554e-03
1.797950943000614643e-03
1.319379778578877449e-03
1.223979052156209946e-03
6.746186409145593643e-04
6.008225027471780777e-04
2.162599703297019005e-03
2.143888035789132118e-03
1.852243905887007713e-03
1.572994980961084366e-03
2.179285278543829918e-03
1.249581575393676758e-03
1.281001255847513676e-03
1.152814831584692001e-03
2.279939362779259682e-03
9.859277633950114250e-04
2.825365867465734482e-03
2.933188341557979584e-03
1.439961954019963741e-03
2.988185267895460129e-03
1.567362342029809952e-03
2.131759654730558395e-03
1.661135465838015079e-03
2.337806392461061478e-03
1.454345649108290672e-03
1.880801981315016747e-03
1.022265525534749031e-03
1.758609898388385773e-03
6.340074469335377216e-04
1.008801511488854885e-03
2.270040800794959068e-03
7.352331886067986488e-04
1.584360725246369839e-03
6.004702299833297729e-03
4.298549611121416092e-03
2.296200720593333244e-03
7.381308823823928833e-04
1.468529342673718929e-03
4.956034244969487190e-04
8.241912582889199257e-04
1.745868357829749584e-03
1.979470951482653618e-03
1.857732306234538555e-03
1.736055244691669941e-03
2.397711854428052902e-03
2.429462270811200142e-03
2.295873593538999557e-03
2.181050600484013557e-03
4.884772351942956448e-04
1.798408455215394497e-03
1.668503857217729092e-03
8.181235752999782562e-04
7.252333452925086021e-04
1.288596773520112038e-03
1.319643808528780937e-03
1.147188944742083549e-03
8.385981782339513302e-04
1.199742779135704041e-03
2.452227752655744553e-03
2.566056791692972183e-03
1.659278175793588161e-03
2.129301661625504494e-03
2.942962571978569031e-03
2.077299403026700020e-03
2.099625067785382271e-03
2.221225993707776070e-03
1.343542942777276039e-03
1.206990214996039867e-03
2.398655051365494728e-03
0.000000000000000000e+00
1.124519156292080879e-03
3.164250869303941727e-03
7.005925872363150120e-04
1.491185743361711502e-03
2.452699234709143639e-03
2.245659707114100456e-03
2.139961114153265953e-03
2.063895808532834053e-03
1.479471800848841667e-03
1.551891211420297623e-03
1.861268072389066219e-03
2.091094851493835449e-03
1.862722099758684635e-03
1.767429290339350700e-03
1.950110425241291523e-03
1.230431837029755116e-03
1.323044183664023876e-03
1.324996468611061573e-03
1.992552541196346283e-03
1.822977792471647263e-03
1.139011350460350513e-03
1.516373478807508945e-03
6.976400618441402912e-04
1.268187072128057480e-03
1.571627915836870670e-03
1.117540290579199791e-03
1.550006098113954067e-03
1.262696343474090099e-03
1.716355094686150551e-03
1.890802639536559582e-03
9.547355002723634243e-04
1.433803583495318890e-03
2.192927757278084755e-03
2.293206052854657173e-03
2.950368914753198624e-03
1.888925209641456604e-03
5.317492759786546230e-04
1.650527468882501125e-03
1.029700040817260742e-03
1.608197693713009357e-03
8.438333170488476753e-04
1.112211961299180984e-03
1.323528471402823925e-03
1.860326156020164490e-03
2.182107185944914818e-03
4.338035942055284977e-04
1.265735365450382233e-03
1.457848935388028622e-03
9.486444178037345409e-04
1.138343242928385735e-03
2.099634148180484772e-03
1.471014809794723988e-03
2.861018292605876923e-04
2.460881369188427925e-03
9.852704824879765511e-04
9.699061047285795212e-04
1.881791162304580212e-03
5.492934724316000938e-04
2.702764235436916351e-03
3.460008156253024936e-05
7.185476715676486492e-04
9.008674533106386662e-04
1.410404569469392300e-03
1.084118033759295940e-03
2.587791765108704567e-03
0.000000000000000000e+00
1.021286239847540855e-03
2.693543210625648499e-03
6.906362250447273254e-04
5.877845105715095997e-04
1.741746324114501476e-03
1.046530436724424362e-03
6.784270517528057098e-04
6.457127747125923634e-04
0.000000000000000000e+00
1.381765832775272429e-05
2.024232890107668936e-05
0.000000000000000000e+00
0.000000000000000000e+00
0.000000000000000000e+00
0.000000000000000000e+00
0.000000000000000000e+00
0.000000000000000000e+00
