2.484044046013877960e-07
8.384221473534125835e-06
4.233464278513565660e-05
8.325731323566287756e-05
1.303787430515512824e-04
1.950207370100542903e-04
3.227429115213453770e-04
5.251711118035018444e-04
7.670705672353506088e-04
1.204390777274966240e-03
1.914913184009492397e-03
3.408181713894009590e-03
6.100832484662532806e-03
1.597998477518558502e-02
2.907928638160228729e-02
3.473895788192749023e-02
3.907355666160583496e-02
3.973094001412391663e-02
3.780416026711463928e-02
3.439479693770408630e-02
3.027893602848052979e-02
2.603294514119625092e-02
1.950117014348506927e-02
1.222606655210256577e-02
7.747319526970386505e-03
5.256856791675090790e-03
3.926891367882490158e-03
3.241028869524598122e-03
2.893100492656230927e-03
2.716359449550509453e-03
2.616739133372902870e-03
2.557222964242100716e-03
2.533329883590340614e-03
2.496527275070548058e-03
2.478099195286631584e-03
2.453460590913891792e-03
2.435971284285187721e-03
2.418889198452234268e-03
2.411076566204428673e-03
2.409849781543016434e-03
2.388556255027651787e-03
2.386159729212522507e-03
2.372535411268472672e-03
2.374368021264672279e-03
2.366842702031135559e-03
2.361903199926018715e-03
2.353819785639643669e-03
2.368219895288348198e-03
2.358788158744573593e-03
2.345472341403365135e-03
2.363902283832430840e-03
2.379898913204669952e-03
2.368819434195756912e-03
2.349938964471220970e-03
2.348040929064154625e-03
2.357373014092445374e-03
2.342469757422804832e-03
2.349501941353082657e-03
2.347139641642570496e-03
2.336605917662382126e-03
2.329128794372081757e-03
2.347199013456702232e-03
2.350493567064404488e-03
2.345561981201171875e-03
2.346576657146215439e-03
2.344688167795538902e-03
2.352293115109205246e-03
2.337242243811488152e-03
2.336062723770737648e-03
2.331649418920278549e-03
2.340933540835976601e-03
2.335543744266033173e-03
2.325548790395259857e-03
2.333975629881024361e-03
2.323606982827186584e-03
2.313586417585611343e-03
2.317124744877219200e-03
2.321525011211633682e-03
2.312161494046449661e-03
2.316039521247148514e-03
2.311810385435819626e-03
2.320007188245654106e-03
2.320683794096112251e-03
2.302708337083458900e-03
2.310092793777585030e-03
2.303205430507659912e-03
2.303309738636016846e-03
2.296731807291507721e-03
2.305122092366218567e-03
2.302553504705429077e-03
2.306676935404539108e-03
2.291255863383412361e-03
2.298687351867556572e-03
2.295653568580746651e-03
2.288506366312503815e-03
2.290950156748294830e-03
2.286250703036785126e-03
2.281865803524851799e-03
2.276596380397677422e-03
2.277564955875277519e-03
2.284541726112365723e-03
2.272822428494691849e-03
2.275861799716949463e-03
2.270490862429141998e-03
2.266468247398734093e-03
2.270017284899950027e-03
2.269214717671275139e-03
2.271123928949236870e-03
2.266507828608155251e-03
2.266114577651023865e-03
2.263754839077591896e-03
2.252246253192424774e-03
2.250886755064129829e-03
2.251398516818881035e-03
2.248630626127123833e-03
2.247432246804237366e-03
2.254237886518239975e-03
2.240887144580483437e-03
2.245829906314611435e-03
2.249004086479544640e-03
2.238616812974214554e-03
2.242271788418292999e-03
2.233149716630578041e-03
2.232545055449008942e-03
2.231801627203822136e-03
2.230926183983683586e-03
2.235251013189554214e-03
2.232124330475926399e-03
2.238275250419974327e-03
2.227706834673881531e-03
2.237009117379784584e-03
2.240048488602042198e-03
2.216552384197711945e-03
2.230490557849407196e-03
2.230136888101696968e-03
2.234549727290868759e-03
2.231827937066555023e-03
2.224640222266316414e-03
2.226926852017641068e-03
2.224350580945611000e-03
2.218038076534867287e-03
2.217603614553809166e-03
2.226909156888723373e-03
2.221707720309495926e-03
2.216151449829339981e-03
2.211053157225251198e-03
2.211884595453739166e-03
2.201620955020189285e-03
2.215333748608827591e-03
2.204719698056578636e-03
2.202572301030158997e-03
2.205825643613934517e-03
2.206262201070785522e-03
2.197358990088105202e-03
2.202195348218083382e-03
2.198189729824662209e-03
2.192404586821794510e-03
2.184906508773565292e-03
2.185455989092588425e-03
2.193265361711382866e-03
2.184345154091715813e-03
2.186246914789080620e-03
2.191099803894758224e-03
2.180895768105983734e-03
2.181487157940864563e-03
2.176650566980242729e-03
2.173292450606822968e-03
2.168457256630063057e-03
2.170024672523140907e-03
2.175564179196953773e-03
2.163615543395280838e-03
2.166513353586196899e-03
2.162100281566381454e-03
2.162182005122303963e-03
2.163934288546442986e-03
2.162239979952573776e-03
2.157771727070212364e-03
2.157509559765458107e-03
2.141091041266918182e-03
2.127653686329722404e-03
2.126730745658278465e-03
2.114906208589673042e-03
2.106198575347661972e-03
2.099129371345043182e-03
2.099359640851616859e-03
2.094356110319495201e-03
2.085833577439188957e-03
2.102605765685439110e-03
2.082191873341798782e-03
2.080474747344851494e-03
2.079426310956478119e-03
2.080079400911927223e-03
2.078122459352016449e-03
2.083663130179047585e-03
2.098516328260302544e-03
2.112266141921281815e-03
2.145286882296204567e-03
2.174068940803408623e-03
2.235803287476301193e-03
2.350916154682636261e-03
2.465655095875263214e-03
2.497804816812276840e-03
2.550564473494887352e-03
2.662675455212593079e-03
2.740123774856328964e-03
2.784226555377244949e-03
2.809851430356502533e-03
2.888605697080492973e-03
3.112819977104663849e-03
3.337848698720335960e-03
3.652736311778426170e-03
4.167858045548200607e-03
4.792117513716220856e-03
5.004161037504673004e-03
4.652475472539663315e-03
3.857046132907271385e-03
4.477233625948429108e-03
5.543393548578023911e-03
6.076898425817489624e-03
6.365728098899126053e-03
6.568797398358583450e-03
6.860337685793638229e-03
7.237231824547052383e-03
7.594993337988853455e-03
8.142221719026565552e-03
7.924899458885192871e-03
7.497642654925584793e-03
7.313840091228485107e-03
7.265100721269845963e-03
6.294709164649248123e-03
6.595502607524394989e-03
7.891803048551082611e-03
8.767743594944477081e-03
7.941657677292823792e-03
7.488844450563192368e-03
8.597339503467082977e-03
8.891174569725990295e-03
8.819859474897384644e-03
8.727720007300376892e-03
1.033158134669065475e-02
8.535870350897312164e-03
5.886433646082878113e-03
4.244012758135795593e-03
2.779544563964009285e-03
1.119902124628424644e-03
3.736554645001888275e-04
8.918886305764317513e-05
1.938058449013624340e-05
1.069421796273672953e-05
5.377530669647967443e-06
2.029366669376031496e-06
4.029441527109156596e-07
