3.541857438449369511e-07
1.134282865677960217e-05
5.745625094277784228e-05
1.129730371758341789e-04
1.763405889505520463e-04
2.630054077599197626e-04
4.354577395133674145e-04
7.083085947670042515e-04
1.035727909766137600e-03
1.615509972907602787e-03
2.569708973169326782e-03
4.596184007823467255e-03
8.230097591876983643e-03
2.159251831471920013e-02
3.934799507260322571e-02
4.703346267342567444e-02
5.285115540027618408e-02
5.369928851723670959e-02
5.101362243294715881e-02
4.625087231397628784e-02
4.057118296623229980e-02
3.461159765720367432e-02
2.555694617331027985e-02
1.552267558872699738e-02
9.334838017821311951e-03
5.902272649109363556e-03
4.074099473655223846e-03
3.151610493659973145e-03
2.690291265025734901e-03
2.459649462252855301e-03
2.327391412109136581e-03
2.284640213474631310e-03
2.249239245429635048e-03
2.200747840106487274e-03
2.174932509660720825e-03
2.170671010389924049e-03
2.144734142348170280e-03
2.130236010998487473e-03
2.103032544255256653e-03
2.099486766383051872e-03
2.111467067152261734e-03
2.097501652315258980e-03
2.082077786326408386e-03
2.063024323433637619e-03
2.080661943182349205e-03
2.057049423456192017e-03
2.072048839181661606e-03
2.044960390776395798e-03
2.061786362901329994e-03
2.046979963779449463e-03
2.025524619966745377e-03
2.071180380880832672e-03
2.034340752288699150e-03
2.075913362205028534e-03
2.082092687487602234e-03
2.085682470351457596e-03
2.038127975538372993e-03
2.024560933932662010e-03
2.076325472444295883e-03
2.024944406002759933e-03
2.042740350589156151e-03
2.041543833911418915e-03
1.995866419747471809e-03
2.042576903477311134e-03
2.060163998976349831e-03
2.048847498372197151e-03
2.038248581811785698e-03
2.025067340582609177e-03
2.032347954809665680e-03
2.032484393566846848e-03
2.015339676290750504e-03
2.041504019871354103e-03
2.033016411587595940e-03
2.018327824771404266e-03
2.002259949222207069e-03
2.036031335592269897e-03
2.015333855524659157e-03
2.010540803894400597e-03
2.008565235882997513e-03
2.002834342420101166e-03
2.018031198531389236e-03
1.987028401345014572e-03
1.989544834941625595e-03
1.975330989807844162e-03
1.997846178710460663e-03
1.978677930310368538e-03
1.965117407962679863e-03
1.951637095771729946e-03
1.994812162593007088e-03
2.018959494307637215e-03
1.985917333513498306e-03
1.980073982849717140e-03
1.988308969885110855e-03
1.973827602341771126e-03
1.958449603989720345e-03
1.962375594303011894e-03
1.962548820301890373e-03
1.961717382073402405e-03
1.945287222042679787e-03
1.951289945282042027e-03
1.935319509357213974e-03
1.943452167324721813e-03
1.948641031049191952e-03
1.945443567819893360e-03
1.949105295352637768e-03
1.939495443366467953e-03
1.934214495122432709e-03
1.926042372360825539e-03
1.919438480399549007e-03
1.927047735080122948e-03
1.915839384309947491e-03
1.912257168442010880e-03
1.894253306090831757e-03
1.893731765449047089e-03
1.899685710668563843e-03
1.884395605884492397e-03
1.872068271040916443e-03
1.894161454401910305e-03
1.893477281555533409e-03
1.877194736152887344e-03
1.890861894935369492e-03
1.885862904600799084e-03
1.864929799921810627e-03
1.866910839453339577e-03
1.849194406531751156e-03
1.876018126495182514e-03
1.844942686147987843e-03
1.857017283327877522e-03
1.884118770249187946e-03
1.840526470914483070e-03
1.854996313340961933e-03
1.859850715845823288e-03
1.863155863247811794e-03
1.829779357649385929e-03
1.869898289442062378e-03
1.857521478086709976e-03
1.851360430009663105e-03
1.840462908148765564e-03
1.831374131143093109e-03
1.863552024587988853e-03
1.821761718019843102e-03
1.853936584666371346e-03
1.852996181696653366e-03
1.853335183113813400e-03
1.835394417867064476e-03
1.847741543315351009e-03
1.823079539462924004e-03
1.820203266106545925e-03
1.817761454731225967e-03
1.819727127440273762e-03
1.823729253374040127e-03
1.826337072998285294e-03
1.812181319110095501e-03
1.833188580349087715e-03
1.833368325605988503e-03
1.829836866818368435e-03
1.818662625737488270e-03
1.796635799109935760e-03
1.820998266339302063e-03
1.808302477002143860e-03
1.837289426475763321e-03
1.796173397451639175e-03
1.822535297833383083e-03
1.787103130482137203e-03
1.804641913622617722e-03
1.789820846170186996e-03
1.781940693035721779e-03
1.779182348400354385e-03
1.793098985217511654e-03
1.731906551867723465e-03
1.802847371436655521e-03
1.804889645427465439e-03
1.797066885046660900e-03
1.791666960343718529e-03
1.791431801393628120e-03
1.771587878465652466e-03
1.766244531609117985e-03
1.752463518641889095e-03
1.743734348565340042e-03
1.730585354380309582e-03
1.749675837345421314e-03
1.720826257951557636e-03
1.715034130029380322e-03
1.693969708867371082e-03
1.703585032373666763e-03
1.689937780611217022e-03
1.687871408648788929e-03
1.685959519818425179e-03
1.691502169705927372e-03
1.688101212494075298e-03
1.672775135375559330e-03
1.667094067670404911e-03
1.679683686234056950e-03
1.677787280641496181e-03
1.693425234407186508e-03
1.701988396234810352e-03
1.730898511596024036e-03
1.741163781844079494e-03
1.787799643352627754e-03
1.886446611024439335e-03
1.971590798348188400e-03
1.978752668946981430e-03
2.031916752457618713e-03
2.113528084009885788e-03
2.149666659533977509e-03
2.213896485045552254e-03
2.238577231764793396e-03
2.309784293174743652e-03
2.449842868372797966e-03
2.645792439579963684e-03
2.874821191653609276e-03
3.254116512835025787e-03
3.739737905561923981e-03
3.864006604999303818e-03
3.574145492166280746e-03
2.996103605255484581e-03
3.465311368927359581e-03
4.325984511524438858e-03
4.728300962597131729e-03
4.939605947583913803e-03
5.087847355753183365e-03
5.292734596878290176e-03
5.481429863721132278e-03
5.775797646492719650e-03
6.234676577150821686e-03
6.060299929231405258e-03
5.791658535599708557e-03
5.581890232861042023e-03
5.471658892929553986e-03
4.702658392488956451e-03
4.947109613567590714e-03
6.101170554757118225e-03
6.755769718438386917e-03
6.037071347236633301e-03
5.613979417830705643e-03
6.595939863473176956e-03
6.881710141897201538e-03
6.851945538073778152e-03
6.908694747835397720e-03
8.366791531443595886e-03
6.875517778098583221e-03
4.728686064481735229e-03
3.516602097079157829e-03
2.361403312534093857e-03
9.799399413168430328e-04
3.296855720691382885e-04
7.869015098549425602e-05
1.860062911873683333e-05
1.052431525749852881e-05
4.352047653810586780e-06
2.199672280767117627e-06
6.230624194358824752e-07
